nm,Abs,
600.00,  0.043,
599.00,  0.044,
598.00,  0.045,
597.00,  0.045,
596.00,  0.046,
595.00,  0.047,
594.00,  0.048,
593.00,  0.049,
592.00,  0.050,
591.00,  0.051,
590.00,  0.052,
589.00,  0.053,
588.00,  0.054,
587.00,  0.055,
586.00,  0.057,
585.00,  0.057,
584.00,  0.059,
583.00,  0.060,
582.00,  0.061,
581.00,  0.062,
580.00,  0.063,
579.00,  0.064,
578.00,  0.065,
577.00,  0.066,
576.00,  0.067,
575.00,  0.068,
574.00,  0.069,
573.00,  0.069,
572.00,  0.071,
571.00,  0.071,
570.00,  0.072,
569.00,  0.073,
568.00,  0.074,
567.00,  0.075,
566.00,  0.076,
565.00,  0.077,
564.00,  0.078,
563.00,  0.079,
562.00,  0.079,
561.00,  0.080,
560.00,  0.081,
559.00,  0.082,
558.00,  0.083,
557.00,  0.084,
556.00,  0.085,
555.00,  0.086,
554.00,  0.086,
553.00,  0.087,
552.00,  0.088,
551.00,  0.089,
550.00,  0.090,
549.00,  0.090,
548.00,  0.091,
547.00,  0.092,
546.00,  0.092,
545.00,  0.093,
544.00,  0.094,
543.00,  0.095,
542.00,  0.096,
541.00,  0.097,
540.00,  0.097,
539.00,  0.098,
538.00,  0.099,
537.00,  0.099,
536.00,  0.100,
535.00,  0.101,
534.00,  0.102,
533.00,  0.103,
532.00,  0.103,
531.00,  0.104,
530.00,  0.104,
529.00,  0.105,
528.00,  0.105,
527.00,  0.106,
526.00,  0.106,
525.00,  0.107,
524.00,  0.107,
523.00,  0.107,
522.00,  0.108,
521.00,  0.108,
520.00,  0.108,
519.00,  0.108,
518.00,  0.108,
517.00,  0.109,
516.00,  0.109,
515.00,  0.109,
514.00,  0.109,
513.00,  0.109,
512.00,  0.109,
511.00,  0.109,
510.00,  0.109,
509.00,  0.109,
508.00,  0.109,
507.00,  0.109,
506.00,  0.109,
505.00,  0.109,
504.00,  0.109,
503.00,  0.108,
502.00,  0.108,
501.00,  0.108,
500.00,  0.108,
499.00,  0.108,
498.00,  0.108,
497.00,  0.108,
496.00,  0.108,
495.00,  0.107,
494.00,  0.107,
493.00,  0.107,
492.00,  0.107,
491.00,  0.107,
490.00,  0.106,
489.00,  0.106,
488.00,  0.106,
487.00,  0.106,
486.00,  0.106,
485.00,  0.106,
484.00,  0.106,
483.00,  0.105,
482.00,  0.105,
481.00,  0.105,
480.00,  0.105,
479.00,  0.105,
478.00,  0.105,
477.00,  0.105,
476.00,  0.105,
475.00,  0.105,
474.00,  0.105,
473.00,  0.105,
472.00,  0.105,
471.00,  0.106,
470.00,  0.105,
469.00,  0.106,
468.00,  0.106,
467.00,  0.106,
466.00,  0.106,
465.00,  0.106,
464.00,  0.106,
463.00,  0.106,
462.00,  0.106,
461.00,  0.106,
460.00,  0.106,
459.00,  0.106,
458.00,  0.106,
457.00,  0.106,
456.00,  0.106,
455.00,  0.106,
454.00,  0.106,
453.00,  0.107,
452.00,  0.106,
451.00,  0.107,
450.00,  0.107,
449.00,  0.107,
448.00,  0.107,
447.00,  0.107,
446.00,  0.107,
445.00,  0.107,
444.00,  0.107,
443.00,  0.107,
442.00,  0.107,
441.00,  0.107,
440.00,  0.107,
439.00,  0.107,
438.00,  0.107,
437.00,  0.108,
436.00,  0.109,
435.00,  0.108,
434.00,  0.108,
433.00,  0.108,
432.00,  0.108,
431.00,  0.109,
430.00,  0.109,
429.00,  0.109,
428.00,  0.109,
427.00,  0.109,
426.00,  0.109,
425.00,  0.110,
424.00,  0.110,
423.00,  0.110,
422.00,  0.110,
421.00,  0.110,
420.00,  0.110,
419.00,  0.110,
418.00,  0.111,
417.00,  0.111,
416.00,  0.111,
415.00,  0.112,
414.00,  0.112,
413.00,  0.112,
412.00,  0.113,
411.00,  0.114,
410.00,  0.115,
409.00,  0.115,
408.00,  0.116,
407.00,  0.117,
406.00,  0.118,
405.00,  0.118,
404.00,  0.120,
403.00,  0.121,
402.00,  0.122,
401.00,  0.123,
400.00,  0.124,
399.00,  0.126,
398.00,  0.127,
397.00,  0.129,
396.00,  0.131,
395.00,  0.132,
394.00,  0.134,
393.00,  0.136,
392.00,  0.138,
391.00,  0.139,
390.00,  0.142,
389.00,  0.144,
388.00,  0.146,
387.00,  0.149,
386.00,  0.151,
385.00,  0.153,
384.00,  0.156,
383.00,  0.158,
382.00,  0.161,
381.00,  0.163,
380.00,  0.166,
379.00,  0.168,
378.00,  0.171,
377.00,  0.174,
376.00,  0.177,
375.00,  0.180,
374.00,  0.184,
373.00,  0.187,
372.00,  0.191,
371.00,  0.195,
370.00,  0.199,
369.00,  0.204,
368.00,  0.209,
367.00,  0.212,
366.00,  0.217,
365.00,  0.224,
364.00,  0.232,
363.00,  0.237,
362.00,  0.243,
361.00,  0.243,
360.00,  0.259,
359.00,  0.263,
358.00,  0.273,
357.00,  0.279,
356.00,  0.285,
355.00,  0.289,
354.00,  0.299,
353.00,  0.304,
352.00,  0.311,
351.00,  0.329,
350.00,  0.334,
349.00,  0.345,
348.00,  0.357,
347.00,  0.371,
346.00,  0.382,
345.00,  0.405,
344.00,  0.412,
343.00,  0.431,
342.00,  0.435,
341.00,  0.445,
340.00,  0.473,
339.00,  0.485,
338.00,  0.498,
337.00,  0.519,
336.00,  0.524,
335.00,  0.543,
334.00,  0.554,
333.00,  0.572,
332.00,  0.572,
331.00,  0.588,
330.00,  0.606,
329.00,  0.607,
328.00,  0.625,
327.00,  0.636,
326.00,  0.639,
325.00,  0.663,
324.00,  0.664,
323.00,  0.676,
322.00,  0.694,
321.00,  0.701,
320.00,  0.715,
319.00,  0.723,
318.00,  0.735,
317.00,  0.750,
316.00,  0.759,
315.00,  0.774,
314.00,  0.783,
313.00,  0.789,
312.00,  0.805,
311.00,  0.792,
310.00,  0.823,
309.00,  0.832,
308.00,  0.837,
307.00,  0.852,
306.00,  0.857,
305.00,  0.865,
304.00,  0.890,
303.00,  0.883,
302.00,  0.892,
301.00,  0.899,
300.00,  0.912,
299.00,  0.926,
298.00,  0.943,
297.00,  0.939,
296.00,  0.953,
295.00,  1.039,
294.00,  1.068,
293.00,  1.102,
292.00,  1.134,
291.00,  1.176,
290.00,  1.233,
289.00,  1.292,
288.00,  1.352,
287.00,  1.404,
286.00,  1.466,
285.00,  1.509,
284.00,  1.542,
283.00,  1.572,
282.00,  1.599,
281.00,  1.617,
280.00,  1.628,
279.00,  1.633,
278.00,  1.633,
277.00,  1.635,
276.00,  1.628,
275.00,  1.616,
274.00,  1.607,
273.00,  1.590,
272.00,  1.567,
271.00,  1.542,
270.00,  1.515,
269.00,  1.488,
268.00,  1.455,
267.00,  1.430,
266.00,  1.415,
265.00,  1.384,
264.00,  1.360,
263.00,  1.339,
262.00,  1.323,
261.00,  1.313,
260.00,  1.307,
259.00,  1.307,
258.00,  1.313,
257.00,  1.325,
256.00,  1.343,
255.00,  1.368,
254.00,  1.413,
253.00,  1.459,
252.00,  1.518,
251.00,  1.587,
250.00,  1.673,
249.00,  1.773,
248.00,  1.892,
247.00,  2.023,
246.00,  2.180,
245.00,  2.327,
244.00,  2.505,
243.00,  2.684,
242.00,  2.833,
241.00,  2.923,
240.00,  3.086,
239.00,  3.283,
238.00,  3.428,
237.00,  3.474,
236.00,  3.439,
235.00,  3.689,
234.00,  3.549,
233.00,  3.495,
232.00,  3.465,
231.00,  3.680,
230.00,  3.484,
229.00,  3.665,
228.00,  3.531,
227.00,  3.524,
226.00,  3.767,
225.00,  3.600,
224.00,  3.665,
223.00,  3.698,
222.00,  3.411,
221.00,  3.660,
220.00,  3.428,
219.00,  3.620,
218.00,  3.672,
217.00,  3.285,
216.00,  3.571,
215.00,  3.339,
214.00,  3.427,
213.00,  3.486,
212.00,  3.405,
211.00,  3.418,
210.00,  3.381,
209.00,  3.375,
208.00,  3.610,
207.00,  3.402,
206.00,  3.394,
205.00,  3.331,
204.00,  3.273,
203.00,  3.083,
202.00,  3.145,
201.00,  2.950,
200.00,  3.022,
199.00,  3.013,
198.00,  2.885,
197.00,  2.830,
196.00,  2.826,
195.00,  2.911,
194.00,  2.738,
193.00,  2.590,
192.00,  2.498,
191.00,  2.505,
190.00,  2.358,
