nm,Abs,
600.00,  0.040,
599.00,  0.042,
598.00,  0.042,
597.00,  0.043,
596.00,  0.044,
595.00,  0.045,
594.00,  0.046,
593.00,  0.047,
592.00,  0.048,
591.00,  0.049,
590.00,  0.050,
589.00,  0.051,
588.00,  0.052,
587.00,  0.053,
586.00,  0.054,
585.00,  0.055,
584.00,  0.056,
583.00,  0.057,
582.00,  0.058,
581.00,  0.059,
580.00,  0.060,
579.00,  0.061,
578.00,  0.062,
577.00,  0.062,
576.00,  0.064,
575.00,  0.065,
574.00,  0.066,
573.00,  0.067,
572.00,  0.067,
571.00,  0.068,
570.00,  0.069,
569.00,  0.070,
568.00,  0.071,
567.00,  0.072,
566.00,  0.073,
565.00,  0.074,
564.00,  0.074,
563.00,  0.075,
562.00,  0.076,
561.00,  0.077,
560.00,  0.078,
559.00,  0.079,
558.00,  0.079,
557.00,  0.080,
556.00,  0.081,
555.00,  0.082,
554.00,  0.083,
553.00,  0.083,
552.00,  0.084,
551.00,  0.085,
550.00,  0.086,
549.00,  0.086,
548.00,  0.087,
547.00,  0.088,
546.00,  0.088,
545.00,  0.089,
544.00,  0.090,
543.00,  0.091,
542.00,  0.092,
541.00,  0.093,
540.00,  0.093,
539.00,  0.094,
538.00,  0.095,
537.00,  0.095,
536.00,  0.096,
535.00,  0.097,
534.00,  0.098,
533.00,  0.098,
532.00,  0.099,
531.00,  0.099,
530.00,  0.100,
529.00,  0.100,
528.00,  0.101,
527.00,  0.102,
526.00,  0.102,
525.00,  0.102,
524.00,  0.103,
523.00,  0.103,
522.00,  0.103,
521.00,  0.103,
520.00,  0.104,
519.00,  0.104,
518.00,  0.104,
517.00,  0.105,
516.00,  0.105,
515.00,  0.105,
514.00,  0.105,
513.00,  0.105,
512.00,  0.105,
511.00,  0.105,
510.00,  0.105,
509.00,  0.105,
508.00,  0.105,
507.00,  0.105,
506.00,  0.105,
505.00,  0.105,
504.00,  0.105,
503.00,  0.104,
502.00,  0.104,
501.00,  0.104,
500.00,  0.104,
499.00,  0.104,
498.00,  0.104,
497.00,  0.103,
496.00,  0.103,
495.00,  0.103,
494.00,  0.103,
493.00,  0.103,
492.00,  0.103,
491.00,  0.102,
490.00,  0.102,
489.00,  0.102,
488.00,  0.102,
487.00,  0.102,
486.00,  0.102,
485.00,  0.102,
484.00,  0.101,
483.00,  0.101,
482.00,  0.101,
481.00,  0.101,
480.00,  0.101,
479.00,  0.101,
478.00,  0.101,
477.00,  0.101,
476.00,  0.101,
475.00,  0.101,
474.00,  0.101,
473.00,  0.101,
472.00,  0.101,
471.00,  0.101,
470.00,  0.102,
469.00,  0.102,
468.00,  0.102,
467.00,  0.102,
466.00,  0.102,
465.00,  0.102,
464.00,  0.102,
463.00,  0.102,
462.00,  0.102,
461.00,  0.102,
460.00,  0.102,
459.00,  0.102,
458.00,  0.102,
457.00,  0.102,
456.00,  0.102,
455.00,  0.102,
454.00,  0.102,
453.00,  0.103,
452.00,  0.102,
451.00,  0.103,
450.00,  0.103,
449.00,  0.103,
448.00,  0.103,
447.00,  0.103,
446.00,  0.103,
445.00,  0.103,
444.00,  0.103,
443.00,  0.103,
442.00,  0.103,
441.00,  0.104,
440.00,  0.103,
439.00,  0.103,
438.00,  0.104,
437.00,  0.104,
436.00,  0.105,
435.00,  0.105,
434.00,  0.104,
433.00,  0.104,
432.00,  0.105,
431.00,  0.105,
430.00,  0.105,
429.00,  0.105,
428.00,  0.105,
427.00,  0.105,
426.00,  0.106,
425.00,  0.106,
424.00,  0.106,
423.00,  0.106,
422.00,  0.106,
421.00,  0.106,
420.00,  0.107,
419.00,  0.107,
418.00,  0.107,
417.00,  0.108,
416.00,  0.108,
415.00,  0.108,
414.00,  0.108,
413.00,  0.109,
412.00,  0.110,
411.00,  0.110,
410.00,  0.111,
409.00,  0.111,
408.00,  0.112,
407.00,  0.113,
406.00,  0.114,
405.00,  0.115,
404.00,  0.116,
403.00,  0.117,
402.00,  0.118,
401.00,  0.119,
400.00,  0.120,
399.00,  0.122,
398.00,  0.123,
397.00,  0.124,
396.00,  0.127,
395.00,  0.128,
394.00,  0.130,
393.00,  0.132,
392.00,  0.134,
391.00,  0.135,
390.00,  0.138,
389.00,  0.140,
388.00,  0.142,
387.00,  0.145,
386.00,  0.147,
385.00,  0.149,
384.00,  0.152,
383.00,  0.154,
382.00,  0.156,
381.00,  0.159,
380.00,  0.161,
379.00,  0.164,
378.00,  0.167,
377.00,  0.169,
376.00,  0.172,
375.00,  0.175,
374.00,  0.178,
373.00,  0.181,
372.00,  0.186,
371.00,  0.190,
370.00,  0.194,
369.00,  0.199,
368.00,  0.203,
367.00,  0.207,
366.00,  0.211,
365.00,  0.219,
364.00,  0.226,
363.00,  0.234,
362.00,  0.238,
361.00,  0.239,
360.00,  0.249,
359.00,  0.261,
358.00,  0.265,
357.00,  0.272,
356.00,  0.278,
355.00,  0.282,
354.00,  0.287,
353.00,  0.296,
352.00,  0.305,
351.00,  0.318,
350.00,  0.330,
349.00,  0.339,
348.00,  0.352,
347.00,  0.364,
346.00,  0.373,
345.00,  0.396,
344.00,  0.405,
343.00,  0.416,
342.00,  0.426,
341.00,  0.436,
340.00,  0.457,
339.00,  0.470,
338.00,  0.487,
337.00,  0.502,
336.00,  0.515,
335.00,  0.522,
334.00,  0.539,
333.00,  0.557,
332.00,  0.568,
331.00,  0.567,
330.00,  0.592,
329.00,  0.603,
328.00,  0.609,
327.00,  0.626,
326.00,  0.634,
325.00,  0.641,
324.00,  0.658,
323.00,  0.657,
322.00,  0.672,
321.00,  0.693,
320.00,  0.699,
319.00,  0.720,
318.00,  0.729,
317.00,  0.732,
316.00,  0.740,
315.00,  0.750,
314.00,  0.767,
313.00,  0.781,
312.00,  0.792,
311.00,  0.782,
310.00,  0.813,
309.00,  0.822,
308.00,  0.837,
307.00,  0.855,
306.00,  0.836,
305.00,  0.871,
304.00,  0.874,
303.00,  0.894,
302.00,  0.894,
301.00,  0.900,
300.00,  0.910,
299.00,  0.938,
298.00,  0.923,
297.00,  0.951,
296.00,  0.974,
295.00,  1.032,
294.00,  1.059,
293.00,  1.093,
292.00,  1.126,
291.00,  1.167,
290.00,  1.221,
289.00,  1.282,
288.00,  1.341,
287.00,  1.396,
286.00,  1.455,
285.00,  1.494,
284.00,  1.530,
283.00,  1.562,
282.00,  1.586,
281.00,  1.602,
280.00,  1.614,
279.00,  1.624,
278.00,  1.625,
277.00,  1.619,
276.00,  1.613,
275.00,  1.606,
274.00,  1.594,
273.00,  1.577,
272.00,  1.556,
271.00,  1.531,
270.00,  1.505,
269.00,  1.475,
268.00,  1.444,
267.00,  1.418,
266.00,  1.404,
265.00,  1.374,
264.00,  1.350,
263.00,  1.329,
262.00,  1.315,
261.00,  1.305,
260.00,  1.300,
259.00,  1.299,
258.00,  1.305,
257.00,  1.317,
256.00,  1.336,
255.00,  1.361,
254.00,  1.404,
253.00,  1.449,
252.00,  1.507,
251.00,  1.576,
250.00,  1.661,
249.00,  1.759,
248.00,  1.878,
247.00,  2.010,
246.00,  2.164,
245.00,  2.324,
244.00,  2.486,
243.00,  2.649,
242.00,  2.818,
241.00,  2.911,
240.00,  3.094,
239.00,  3.178,
238.00,  3.294,
237.00,  3.389,
236.00,  3.329,
235.00,  3.464,
234.00,  3.589,
233.00,  3.421,
232.00,  3.548,
231.00,  3.458,
230.00,  3.429,
229.00,  3.815,
228.00,  3.413,
227.00,  3.667,
226.00,  3.641,
225.00,  3.552,
224.00,  3.394,
223.00,  3.366,
222.00,  3.528,
221.00,  3.358,
220.00,  3.359,
219.00,  3.485,
218.00,  3.269,
217.00,  3.315,
216.00,  3.610,
215.00,  3.339,
214.00,  3.524,
213.00,  3.365,
212.00,  3.311,
211.00,  3.548,
210.00,  3.237,
209.00,  3.173,
208.00,  3.281,
207.00,  3.047,
206.00,  3.245,
205.00,  3.108,
204.00,  3.256,
203.00,  3.383,
202.00,  3.137,
201.00,  3.000,
200.00,  3.096,
199.00,  2.938,
198.00,  2.906,
197.00,  2.986,
196.00,  2.801,
195.00,  2.741,
194.00,  2.612,
193.00,  2.506,
192.00,  2.488,
191.00,  2.401,
190.00,  2.197,
