nm,Abs,
600.00,  0.039,
599.00,  0.041,
598.00,  0.041,
597.00,  0.042,
596.00,  0.043,
595.00,  0.044,
594.00,  0.045,
593.00,  0.046,
592.00,  0.047,
591.00,  0.047,
590.00,  0.049,
589.00,  0.050,
588.00,  0.051,
587.00,  0.052,
586.00,  0.053,
585.00,  0.053,
584.00,  0.055,
583.00,  0.055,
582.00,  0.057,
581.00,  0.058,
580.00,  0.058,
579.00,  0.060,
578.00,  0.061,
577.00,  0.061,
576.00,  0.062,
575.00,  0.063,
574.00,  0.064,
573.00,  0.065,
572.00,  0.066,
571.00,  0.067,
570.00,  0.067,
569.00,  0.068,
568.00,  0.069,
567.00,  0.070,
566.00,  0.071,
565.00,  0.072,
564.00,  0.073,
563.00,  0.074,
562.00,  0.074,
561.00,  0.075,
560.00,  0.076,
559.00,  0.077,
558.00,  0.077,
557.00,  0.078,
556.00,  0.079,
555.00,  0.080,
554.00,  0.081,
553.00,  0.081,
552.00,  0.082,
551.00,  0.083,
550.00,  0.084,
549.00,  0.084,
548.00,  0.085,
547.00,  0.086,
546.00,  0.086,
545.00,  0.087,
544.00,  0.088,
543.00,  0.089,
542.00,  0.090,
541.00,  0.090,
540.00,  0.091,
539.00,  0.092,
538.00,  0.093,
537.00,  0.093,
536.00,  0.094,
535.00,  0.095,
534.00,  0.095,
533.00,  0.096,
532.00,  0.097,
531.00,  0.097,
530.00,  0.097,
529.00,  0.098,
528.00,  0.099,
527.00,  0.099,
526.00,  0.100,
525.00,  0.100,
524.00,  0.100,
523.00,  0.101,
522.00,  0.101,
521.00,  0.101,
520.00,  0.102,
519.00,  0.102,
518.00,  0.102,
517.00,  0.102,
516.00,  0.102,
515.00,  0.102,
514.00,  0.103,
513.00,  0.103,
512.00,  0.103,
511.00,  0.103,
510.00,  0.103,
509.00,  0.103,
508.00,  0.103,
507.00,  0.103,
506.00,  0.102,
505.00,  0.102,
504.00,  0.102,
503.00,  0.102,
502.00,  0.102,
501.00,  0.102,
500.00,  0.102,
499.00,  0.102,
498.00,  0.102,
497.00,  0.101,
496.00,  0.101,
495.00,  0.101,
494.00,  0.101,
493.00,  0.101,
492.00,  0.100,
491.00,  0.100,
490.00,  0.100,
489.00,  0.100,
488.00,  0.100,
487.00,  0.100,
486.00,  0.099,
485.00,  0.099,
484.00,  0.099,
483.00,  0.099,
482.00,  0.099,
481.00,  0.099,
480.00,  0.099,
479.00,  0.099,
478.00,  0.099,
477.00,  0.099,
476.00,  0.099,
475.00,  0.099,
474.00,  0.099,
473.00,  0.099,
472.00,  0.099,
471.00,  0.099,
470.00,  0.099,
469.00,  0.099,
468.00,  0.099,
467.00,  0.099,
466.00,  0.099,
465.00,  0.100,
464.00,  0.099,
463.00,  0.099,
462.00,  0.100,
461.00,  0.100,
460.00,  0.100,
459.00,  0.100,
458.00,  0.100,
457.00,  0.100,
456.00,  0.100,
455.00,  0.100,
454.00,  0.100,
453.00,  0.100,
452.00,  0.100,
451.00,  0.101,
450.00,  0.101,
449.00,  0.101,
448.00,  0.101,
447.00,  0.101,
446.00,  0.101,
445.00,  0.101,
444.00,  0.101,
443.00,  0.101,
442.00,  0.101,
441.00,  0.101,
440.00,  0.101,
439.00,  0.101,
438.00,  0.101,
437.00,  0.102,
436.00,  0.102,
435.00,  0.102,
434.00,  0.102,
433.00,  0.102,
432.00,  0.102,
431.00,  0.103,
430.00,  0.103,
429.00,  0.103,
428.00,  0.103,
427.00,  0.103,
426.00,  0.103,
425.00,  0.104,
424.00,  0.104,
423.00,  0.104,
422.00,  0.104,
421.00,  0.104,
420.00,  0.104,
419.00,  0.105,
418.00,  0.105,
417.00,  0.106,
416.00,  0.105,
415.00,  0.106,
414.00,  0.106,
413.00,  0.106,
412.00,  0.107,
411.00,  0.108,
410.00,  0.108,
409.00,  0.109,
408.00,  0.110,
407.00,  0.111,
406.00,  0.111,
405.00,  0.112,
404.00,  0.113,
403.00,  0.114,
402.00,  0.115,
401.00,  0.116,
400.00,  0.117,
399.00,  0.119,
398.00,  0.121,
397.00,  0.122,
396.00,  0.124,
395.00,  0.126,
394.00,  0.127,
393.00,  0.129,
392.00,  0.132,
391.00,  0.132,
390.00,  0.135,
389.00,  0.136,
388.00,  0.139,
387.00,  0.141,
386.00,  0.144,
385.00,  0.145,
384.00,  0.148,
383.00,  0.151,
382.00,  0.153,
381.00,  0.155,
380.00,  0.157,
379.00,  0.160,
378.00,  0.163,
377.00,  0.166,
376.00,  0.168,
375.00,  0.172,
374.00,  0.175,
373.00,  0.178,
372.00,  0.182,
371.00,  0.186,
370.00,  0.190,
369.00,  0.194,
368.00,  0.199,
367.00,  0.203,
366.00,  0.207,
365.00,  0.214,
364.00,  0.220,
363.00,  0.227,
362.00,  0.232,
361.00,  0.239,
360.00,  0.244,
359.00,  0.260,
358.00,  0.254,
357.00,  0.266,
356.00,  0.267,
355.00,  0.273,
354.00,  0.284,
353.00,  0.296,
352.00,  0.302,
351.00,  0.311,
350.00,  0.318,
349.00,  0.324,
348.00,  0.345,
347.00,  0.360,
346.00,  0.363,
345.00,  0.392,
344.00,  0.401,
343.00,  0.421,
342.00,  0.426,
341.00,  0.439,
340.00,  0.452,
339.00,  0.471,
338.00,  0.485,
337.00,  0.504,
336.00,  0.518,
335.00,  0.519,
334.00,  0.535,
333.00,  0.549,
332.00,  0.551,
331.00,  0.570,
330.00,  0.586,
329.00,  0.590,
328.00,  0.603,
327.00,  0.620,
326.00,  0.621,
325.00,  0.636,
324.00,  0.649,
323.00,  0.651,
322.00,  0.667,
321.00,  0.685,
320.00,  0.695,
319.00,  0.709,
318.00,  0.719,
317.00,  0.720,
316.00,  0.741,
315.00,  0.746,
314.00,  0.767,
313.00,  0.772,
312.00,  0.779,
311.00,  0.793,
310.00,  0.806,
309.00,  0.813,
308.00,  0.823,
307.00,  0.835,
306.00,  0.837,
305.00,  0.854,
304.00,  0.863,
303.00,  0.867,
302.00,  0.883,
301.00,  0.904,
300.00,  0.891,
299.00,  0.919,
298.00,  0.913,
297.00,  0.947,
296.00,  0.982,
295.00,  1.013,
294.00,  1.041,
293.00,  1.073,
292.00,  1.106,
291.00,  1.147,
290.00,  1.201,
289.00,  1.259,
288.00,  1.319,
287.00,  1.374,
286.00,  1.428,
285.00,  1.469,
284.00,  1.505,
283.00,  1.535,
282.00,  1.557,
281.00,  1.572,
280.00,  1.584,
279.00,  1.594,
278.00,  1.597,
277.00,  1.593,
276.00,  1.584,
275.00,  1.578,
274.00,  1.564,
273.00,  1.548,
272.00,  1.528,
271.00,  1.504,
270.00,  1.478,
269.00,  1.449,
268.00,  1.420,
267.00,  1.395,
266.00,  1.381,
265.00,  1.348,
264.00,  1.326,
263.00,  1.306,
262.00,  1.293,
261.00,  1.282,
260.00,  1.276,
259.00,  1.277,
258.00,  1.283,
257.00,  1.294,
256.00,  1.312,
255.00,  1.337,
254.00,  1.380,
253.00,  1.424,
252.00,  1.480,
251.00,  1.549,
250.00,  1.632,
249.00,  1.729,
248.00,  1.845,
247.00,  1.979,
246.00,  2.125,
245.00,  2.288,
244.00,  2.457,
243.00,  2.632,
242.00,  2.776,
241.00,  2.921,
240.00,  3.016,
239.00,  3.310,
238.00,  3.255,
237.00,  3.517,
236.00,  3.661,
235.00,  3.530,
234.00,  3.562,
233.00,  3.627,
232.00,  3.444,
231.00,  3.645,
230.00,  3.461,
229.00,  3.346,
228.00,  3.434,
227.00,  3.498,
226.00,  3.503,
225.00,  3.634,
224.00,  3.291,
223.00,  3.494,
222.00,  3.499,
221.00,  3.567,
220.00,  3.557,
219.00,  3.360,
218.00,  3.746,
217.00,  3.305,
216.00,  3.485,
215.00,  3.442,
214.00,  3.324,
213.00,  3.503,
212.00,  3.277,
211.00,  3.386,
210.00,  3.283,
209.00,  3.262,
208.00,  3.507,
207.00,  3.245,
206.00,  3.274,
205.00,  3.279,
204.00,  3.119,
203.00,  3.171,
202.00,  3.090,
201.00,  2.955,
200.00,  3.000,
199.00,  3.019,
198.00,  2.901,
197.00,  2.806,
196.00,  2.840,
195.00,  2.907,
194.00,  2.610,
193.00,  2.558,
192.00,  2.380,
191.00,  2.421,
190.00,  2.231,
