nm,Abs,
600.00,  0.050,
599.00,  0.052,
598.00,  0.053,
597.00,  0.054,
596.00,  0.055,
595.00,  0.056,
594.00,  0.057,
593.00,  0.059,
592.00,  0.060,
591.00,  0.061,
590.00,  0.062,
589.00,  0.064,
588.00,  0.065,
587.00,  0.066,
586.00,  0.067,
585.00,  0.068,
584.00,  0.070,
583.00,  0.071,
582.00,  0.072,
581.00,  0.074,
580.00,  0.075,
579.00,  0.076,
578.00,  0.077,
577.00,  0.078,
576.00,  0.079,
575.00,  0.080,
574.00,  0.081,
573.00,  0.082,
572.00,  0.083,
571.00,  0.084,
570.00,  0.085,
569.00,  0.086,
568.00,  0.087,
567.00,  0.088,
566.00,  0.089,
565.00,  0.090,
564.00,  0.091,
563.00,  0.092,
562.00,  0.092,
561.00,  0.093,
560.00,  0.094,
559.00,  0.095,
558.00,  0.096,
557.00,  0.096,
556.00,  0.097,
555.00,  0.098,
554.00,  0.099,
553.00,  0.100,
552.00,  0.100,
551.00,  0.101,
550.00,  0.101,
549.00,  0.102,
548.00,  0.103,
547.00,  0.104,
546.00,  0.104,
545.00,  0.105,
544.00,  0.105,
543.00,  0.106,
542.00,  0.107,
541.00,  0.107,
540.00,  0.108,
539.00,  0.109,
538.00,  0.109,
537.00,  0.110,
536.00,  0.111,
535.00,  0.111,
534.00,  0.111,
533.00,  0.112,
532.00,  0.112,
531.00,  0.113,
530.00,  0.113,
529.00,  0.114,
528.00,  0.114,
527.00,  0.115,
526.00,  0.115,
525.00,  0.115,
524.00,  0.115,
523.00,  0.115,
522.00,  0.115,
521.00,  0.116,
520.00,  0.116,
519.00,  0.116,
518.00,  0.116,
517.00,  0.116,
516.00,  0.116,
515.00,  0.116,
514.00,  0.116,
513.00,  0.116,
512.00,  0.116,
511.00,  0.116,
510.00,  0.116,
509.00,  0.116,
508.00,  0.115,
507.00,  0.115,
506.00,  0.115,
505.00,  0.115,
504.00,  0.115,
503.00,  0.114,
502.00,  0.114,
501.00,  0.114,
500.00,  0.114,
499.00,  0.114,
498.00,  0.113,
497.00,  0.113,
496.00,  0.113,
495.00,  0.113,
494.00,  0.113,
493.00,  0.112,
492.00,  0.112,
491.00,  0.112,
490.00,  0.112,
489.00,  0.111,
488.00,  0.111,
487.00,  0.111,
486.00,  0.111,
485.00,  0.111,
484.00,  0.111,
483.00,  0.111,
482.00,  0.110,
481.00,  0.110,
480.00,  0.110,
479.00,  0.110,
478.00,  0.110,
477.00,  0.110,
476.00,  0.111,
475.00,  0.111,
474.00,  0.111,
473.00,  0.110,
472.00,  0.110,
471.00,  0.111,
470.00,  0.111,
469.00,  0.111,
468.00,  0.111,
467.00,  0.111,
466.00,  0.111,
465.00,  0.111,
464.00,  0.111,
463.00,  0.111,
462.00,  0.111,
461.00,  0.111,
460.00,  0.111,
459.00,  0.111,
458.00,  0.112,
457.00,  0.111,
456.00,  0.112,
455.00,  0.111,
454.00,  0.111,
453.00,  0.112,
452.00,  0.112,
451.00,  0.112,
450.00,  0.112,
449.00,  0.112,
448.00,  0.112,
447.00,  0.112,
446.00,  0.112,
445.00,  0.112,
444.00,  0.112,
443.00,  0.112,
442.00,  0.112,
441.00,  0.112,
440.00,  0.112,
439.00,  0.112,
438.00,  0.112,
437.00,  0.113,
436.00,  0.113,
435.00,  0.113,
434.00,  0.113,
433.00,  0.113,
432.00,  0.113,
431.00,  0.113,
430.00,  0.113,
429.00,  0.114,
428.00,  0.114,
427.00,  0.114,
426.00,  0.114,
425.00,  0.114,
424.00,  0.114,
423.00,  0.114,
422.00,  0.114,
421.00,  0.114,
420.00,  0.114,
419.00,  0.114,
418.00,  0.114,
417.00,  0.115,
416.00,  0.115,
415.00,  0.115,
414.00,  0.115,
413.00,  0.115,
412.00,  0.116,
411.00,  0.116,
410.00,  0.116,
409.00,  0.117,
408.00,  0.117,
407.00,  0.118,
406.00,  0.119,
405.00,  0.119,
404.00,  0.120,
403.00,  0.121,
402.00,  0.121,
401.00,  0.122,
400.00,  0.123,
399.00,  0.125,
398.00,  0.125,
397.00,  0.127,
396.00,  0.128,
395.00,  0.130,
394.00,  0.131,
393.00,  0.132,
392.00,  0.134,
391.00,  0.135,
390.00,  0.137,
389.00,  0.139,
388.00,  0.140,
387.00,  0.142,
386.00,  0.144,
385.00,  0.146,
384.00,  0.148,
383.00,  0.150,
382.00,  0.152,
381.00,  0.154,
380.00,  0.156,
379.00,  0.158,
378.00,  0.160,
377.00,  0.163,
376.00,  0.165,
375.00,  0.168,
374.00,  0.170,
373.00,  0.173,
372.00,  0.177,
371.00,  0.181,
370.00,  0.184,
369.00,  0.188,
368.00,  0.192,
367.00,  0.196,
366.00,  0.199,
365.00,  0.207,
364.00,  0.213,
363.00,  0.218,
362.00,  0.222,
361.00,  0.223,
360.00,  0.233,
359.00,  0.243,
358.00,  0.247,
357.00,  0.257,
356.00,  0.258,
355.00,  0.258,
354.00,  0.267,
353.00,  0.279,
352.00,  0.283,
351.00,  0.291,
350.00,  0.303,
349.00,  0.307,
348.00,  0.322,
347.00,  0.326,
346.00,  0.342,
345.00,  0.359,
344.00,  0.364,
343.00,  0.376,
342.00,  0.382,
341.00,  0.395,
340.00,  0.405,
339.00,  0.416,
338.00,  0.431,
337.00,  0.445,
336.00,  0.455,
335.00,  0.463,
334.00,  0.473,
333.00,  0.479,
332.00,  0.488,
331.00,  0.499,
330.00,  0.522,
329.00,  0.524,
328.00,  0.534,
327.00,  0.548,
326.00,  0.556,
325.00,  0.566,
324.00,  0.569,
323.00,  0.580,
322.00,  0.597,
321.00,  0.600,
320.00,  0.610,
319.00,  0.629,
318.00,  0.629,
317.00,  0.649,
316.00,  0.650,
315.00,  0.665,
314.00,  0.679,
313.00,  0.682,
312.00,  0.699,
311.00,  0.707,
310.00,  0.718,
309.00,  0.721,
308.00,  0.733,
307.00,  0.747,
306.00,  0.750,
305.00,  0.770,
304.00,  0.782,
303.00,  0.784,
302.00,  0.788,
301.00,  0.806,
300.00,  0.823,
299.00,  0.814,
298.00,  0.847,
297.00,  0.836,
296.00,  0.878,
295.00,  0.915,
294.00,  0.944,
293.00,  0.979,
292.00,  1.012,
291.00,  1.053,
290.00,  1.109,
289.00,  1.171,
288.00,  1.233,
287.00,  1.288,
286.00,  1.347,
285.00,  1.389,
284.00,  1.428,
283.00,  1.459,
282.00,  1.482,
281.00,  1.500,
280.00,  1.514,
279.00,  1.524,
278.00,  1.531,
277.00,  1.529,
276.00,  1.524,
275.00,  1.520,
274.00,  1.510,
273.00,  1.492,
272.00,  1.475,
271.00,  1.453,
270.00,  1.430,
269.00,  1.405,
268.00,  1.375,
267.00,  1.352,
266.00,  1.340,
265.00,  1.313,
264.00,  1.292,
263.00,  1.273,
262.00,  1.261,
261.00,  1.255,
260.00,  1.252,
259.00,  1.254,
258.00,  1.262,
257.00,  1.277,
256.00,  1.298,
255.00,  1.325,
254.00,  1.371,
253.00,  1.420,
252.00,  1.482,
251.00,  1.552,
250.00,  1.640,
249.00,  1.743,
248.00,  1.864,
247.00,  1.993,
246.00,  2.147,
245.00,  2.311,
244.00,  2.476,
243.00,  2.637,
242.00,  2.822,
241.00,  2.935,
240.00,  3.031,
239.00,  3.193,
238.00,  3.352,
237.00,  3.326,
236.00,  3.352,
235.00,  3.568,
234.00,  3.458,
233.00,  3.627,
232.00,  3.499,
231.00,  3.379,
230.00,  3.484,
229.00,  3.412,
228.00,  3.457,
227.00,  3.552,
226.00,  3.559,
225.00,  3.496,
224.00,  3.451,
223.00,  3.455,
222.00,  3.593,
221.00,  3.463,
220.00,  3.481,
219.00,  3.418,
218.00,  3.488,
217.00,  3.683,
216.00,  3.299,
215.00,  3.504,
214.00,  3.313,
213.00,  3.304,
212.00,  3.266,
211.00,  3.258,
210.00,  3.296,
209.00,  3.193,
208.00,  3.640,
207.00,  3.383,
206.00,  3.103,
205.00,  3.534,
204.00,  3.034,
203.00,  3.383,
202.00,  3.019,
201.00,  3.008,
200.00,  2.886,
199.00,  3.012,
198.00,  3.030,
197.00,  2.851,
196.00,  2.751,
195.00,  2.821,
194.00,  2.673,
193.00,  2.539,
192.00,  2.471,
191.00,  2.432,
190.00,  2.264,
