11-20-2017,16:31:07
Wavenumber(cm-1),Intensity
 250 , 29845.4921554041 
 251 , 29903.0025815564 
 252 , 29937.7160965982 
 253 , 29944.656425335 
 254 , 29943.2118324687 
 255 , 29953.4749733131 
 256 , 29975.0805577275 
 257 , 29992.4467171692 
 258 , 29993.207934246 
 259 , 29984.3349443249 
 260 , 29979.2857130076 
 261 , 29987.9396448466 
 262 , 30011.9275661942 
 263 , 30051.6752134483 
 264 , 30106.3702495604 
 265 , 30173.8919286693 
 266 , 30250.9917437549 
 267 , 30325.7473603332 
 268 , 30382.0123088721 
 269 , 30409.9983292769 
 270 , 30421.0995570849 
 271 , 30430.9665165042 
 272 , 30448.6427994165 
 273 , 30473.5472007351 
 274 , 30504.1385833415 
 275 , 30536.4214319721 
 276 , 30564.7532021983 
 277 , 30585.801256836 
 278 , 30607.1606731515 
 279 , 30639.5649115357 
 280 , 30687.6685058135 
 281 , 30744.2034338624 
 282 , 30800.8294477795 
 283 , 30855.0831177397 
 284 , 30909.7165954138 
 285 , 30966.8198107742 
 286 , 31023.1005547923 
 287 , 31073.1555494938 
 288 , 31113.687049132 
 289 , 31146.849983103 
 290 , 31175.631616206 
 291 , 31201.9543027214 
 292 , 31226.5319129507 
 293 , 31250.2012778121 
 294 , 31275.4046269199 
 295 , 31305.3964159496 
 296 , 31340.8701625954 
 297 , 31373.9892913611 
 298 , 31395.3509043495 
 299 , 31405.0873185026 
 300 , 31416.7608041277 
 301 , 31443.4705107087 
 302 , 31481.8645656483 
 303 , 31518.29301373 
 304 , 31542.8135722085 
 305 , 31561.5198206457 
 306 , 31584.5766053389 
 307 , 31615.4268809384 
 308 , 31646.0924176076 
 309 , 31668.2339810843 
 310 , 31684.2123899483 
 311 , 31704.375449503 
 312 , 31737.1827117216 
 313 , 31780.6869873232 
 314 , 31829.7033889099 
 315 , 31880.4531588051 
 316 , 31931.9603279101 
 317 , 31983.5925979173 
 318 , 32034.9259218305 
 319 , 32085.715519496 
 320 , 32136.4791179441 
 321 , 32192.1492283306 
 322 , 32259.2190279058 
 323 , 32335.9876513408 
 324 , 32402.182319917 
 325 , 32436.1467121924 
 326 , 32441.4159596132 
 327 , 32445.7484333311 
 328 , 32473.0316685333 
 329 , 32515.2595985932 
 330 , 32551.575300077 
 331 , 32572.0834172415 
 332 , 32594.3590904577 
 333 , 32639.2256943493 
 334 , 32703.4801014813 
 335 , 32758.9054021786 
 336 , 32780.665443826 
 337 , 32776.4433068416 
 338 , 32768.0688028782 
 339 , 32772.2806135171 
 340 , 32792.0968964541 
 341 , 32827.9465899502 
 342 , 32871.3331302177 
 343 , 32904.0064806922 
 344 , 32910.30053463 
 345 , 32897.6138157249 
 346 , 32883.7964379632 
 347 , 32880.8083192437 
 348 , 32884.2826584933 
 349 , 32887.2724842086 
 350 , 32888.4254586016 
 351 , 32892.6103766841 
 352 , 32905.0023430079 
 353 , 32930.6347608969 
 354 , 32974.4704627447 
 355 , 33037.5256792573 
 356 , 33110.0127746042 
 357 , 33180.5580319717 
 358 , 33244.517328026 
 359 , 33304.6288852531 
 360 , 33364.0697122211 
 361 , 33426.4696977082 
 362 , 33495.6546734256 
 363 , 33572.4271137921 
 364 , 33649.6167704713 
 365 , 33718.9492949699 
 366 , 33777.0311036623 
 367 , 33825.5897493799 
 368 , 33866.6336475028 
 369 , 33902.4351189193 
 370 , 33935.3724271135 
 371 , 33966.1675896405 
 372 , 33991.4761020692 
 373 , 34007.8450355414 
 374 , 34022.8676719248 
 375 , 34054.8861523458 
 376 , 34117.4284590476 
 377 , 34191.458175582 
 378 , 34245.5566622129 
 379 , 34261.9503855735 
 380 , 34253.1142748427 
 381 , 34235.6049792741 
 382 , 34226.4836016554 
 383 , 34243.2526165366 
 384 , 34298.5741318942 
 385 , 34378.905127424 
 386 , 34461.9616505034 
 387 , 34532.6377622966 
 388 , 34589.7221350077 
 389 , 34633.7275774063 
 390 , 34667.1710972078 
 391 , 34694.0976325345 
 392 , 34718.9749406716 
 393 , 34748.0193961777 
 394 , 34787.8523765945 
 395 , 34838.6186898913 
 396 , 34889.8316360486 
 397 , 34930.8888458069 
 398 , 34961.2742179097 
 399 , 34986.9557793756 
 400 , 35013.515402855 
 401 , 35044.706778109 
 402 , 35083.7868597778 
 403 , 35130.8791116092 
 404 , 35181.862148556 
 405 , 35232.6260910477 
 406 , 35281.8435957074 
 407 , 35329.6437523973 
 408 , 35376.5140589884 
 409 , 35423.9529997751 
 410 , 35473.6571137352 
 411 , 35527.7042772148 
 412 , 35588.5868951334 
 413 , 35657.5767965169 
 414 , 35727.656572333 
 415 , 35788.4427290155 
 416 , 35835.8868501037 
 417 , 35880.2106043781 
 418 , 35932.7385945386 
 419 , 35990.1292815106 
 420 , 36036.6228841147 
 421 , 36060.1047409599 
 422 , 36068.301570838 
 423 , 36074.9409023796 
 424 , 36087.2437966125 
 425 , 36101.4199257125 
 426 , 36112.919552542 
 427 , 36120.6780830825 
 428 , 36125.8528566633 
 429 , 36130.864904642 
 430 , 36142.4549927961 
 431 , 36168.0669561435 
 432 , 36206.408795546 
 433 , 36245.30530165 
 434 , 36273.3280891645 
 435 , 36289.9479458846 
 436 , 36299.6598960786 
 437 , 36308.4913089552 
 438 , 36326.1681974516 
 439 , 36362.4212162653 
 440 , 36416.4978347642 
 441 , 36478.2721026079 
 442 , 36538.3587315486 
 443 , 36592.8040853268 
 444 , 36639.4234607134 
 445 , 36679.9525044082 
 446 , 36722.7589954697 
 447 , 36775.6527275868 
 448 , 36833.2314300083 
 449 , 36881.9018775433 
 450 , 36911.5722469845 
 451 , 36924.1350771184 
 452 , 36924.1902572267 
 453 , 36923.3135322874 
 454 , 36941.0895159091 
 455 , 36993.1730536043 
 456 , 37066.0251833692 
 457 , 37134.1904064352 
 458 , 37179.566760236 
 459 , 37199.7363907558 
 460 , 37195.1091981067 
 461 , 37178.1842451967 
 462 , 37170.6399794375 
 463 , 37189.5767704258 
 464 , 37232.5084867897 
 465 , 37291.749634073 
 466 , 37350.5481173045 
 467 , 37379.8591593718 
 468 , 37356.1538875308 
 469 , 37307.1277002009 
 470 , 37285.0294105957 
 471 , 37320.6730198072 
 472 , 37392.0687589961 
 473 , 37470.1624024411 
 474 , 37540.9312042601 
 475 , 37603.1606234764 
 476 , 37655.4929640015 
 477 , 37694.049971555 
 478 , 37714.4040460561 
 479 , 37720.9650092233 
 480 , 37731.149512052 
 481 , 37760.6942890021 
 482 , 37801.6823994092 
 483 , 37834.0542356159 
 484 , 37847.3476682087 
 485 , 37856.0726220266 
 486 , 37877.8172562042 
 487 , 37913.8505201443 
 488 , 37951.1068891747 
 489 , 37979.1783532202 
 490 , 38002.2222448017 
 491 , 38028.5031533285 
 492 , 38060.7633741113 
 493 , 38093.6447144726 
 494 , 38121.7142008276 
 495 , 38144.3748147803 
 496 , 38163.4675397341 
 497 , 38182.0681428704 
 498 , 38206.2600239166 
 499 , 38242.1801827494 
 500 , 38289.1612497829 
 501 , 38340.8730113916 
 502 , 38391.3810469742 
 503 , 38437.1771039172 
 504 , 38475.4089643149 
 505 , 38503.5880412879 
 506 , 38519.7138526397 
 507 , 38522.7181005072 
 508 , 38518.2091315872 
 509 , 38514.778880818 
 510 , 38516.3907031125 
 511 , 38516.9330604744 
 512 , 38509.8637480394 
 513 , 38500.8054070412 
 514 , 38504.1920223407 
 515 , 38530.3732030725 
 516 , 38574.3926741454 
 517 , 38627.7712481615 
 518 , 38679.021322001 
 519 , 38713.2558686571 
 520 , 38719.1309664058 
 521 , 38707.3851488225 
 522 , 38696.7681990634 
 523 , 38698.0208702306 
 524 , 38707.8549924575 
 525 , 38722.1189882104 
 526 , 38742.1969814402 
 527 , 38772.6648539422 
 528 , 38815.1493382896 
 529 , 38863.1125346561 
 530 , 38908.9265787181 
 531 , 38950.3094308439 
 532 , 38989.6597680137 
 533 , 39028.2155823773 
 534 , 39061.5160546364 
 535 , 39083.775882298 
 536 , 39097.5981869087 
 537 , 39116.5134618598 
 538 , 39152.3162340479 
 539 , 39199.9414715488 
 540 , 39247.3413527369 
 541 , 39289.7924557778 
 542 , 39336.7603255519 
 543 , 39397.6991540986 
 544 , 39464.0390657104 
 545 , 39516.0167328324 
 546 , 39543.3089637521 
 547 , 39563.2916094654 
 548 , 39597.4596453424 
 549 , 39651.242620659 
 550 , 39715.6508632953 
 551 , 39780.8708964155 
 552 , 39835.7386378749 
 553 , 39869.0627793765 
 554 , 39882.2412984644 
 555 , 39892.7130838135 
 556 , 39917.3580594497 
 557 , 39962.711453431 
 558 , 40031.088147752 
 559 , 40114.9589423207 
 560 , 40189.1210375304 
 561 , 40228.7527644494 
 562 , 40230.7873937315 
 563 , 40204.4671974649 
 564 , 40164.0533716612 
 565 , 40136.190910946 
 566 , 40147.3629655544 
 567 , 40191.9773102032 
 568 , 40239.3887322098 
 569 , 40266.5340106775 
 570 , 40279.9932320137 
 571 , 40292.6295971941 
 572 , 40307.7510153004 
 573 , 40318.551629038 
 574 , 40320.0830351909 
 575 , 40319.2513873148 
 576 , 40326.5486862592 
 577 , 40345.138725548 
 578 , 40367.7992398506 
 579 , 40387.6658089047 
 580 , 40405.9908257614 
 581 , 40427.5091535801 
 582 , 40454.6787548658 
 583 , 40485.6406342276 
 584 , 40517.8558051844 
 585 , 40546.7708103951 
 586 , 40566.6792277825 
 587 , 40573.4599108095 
 588 , 40566.9868706179 
 589 , 40548.0974870797 
 590 , 40522.6324756282 
 591 , 40500.1697333535 
 592 , 40487.4976659447 
 593 , 40481.8932690278 
 594 , 40478.8676055871 
 595 , 40478.0668026958 
 596 , 40483.0825410503 
 597 , 40496.1119920898 
 598 , 40512.6243007706 
 599 , 40526.3554518536 
 600 , 40533.9858886128 
 601 , 40535.7346730853 
 602 , 40533.5175096523 
 603 , 40537.6091501622 
 604 , 40560.9837224016 
 605 , 40604.606310432 
 606 , 40651.4590553019 
 607 , 40686.1323352373 
 608 , 40715.5248028622 
 609 , 40756.24990839 
 610 , 40814.8132263508 
 611 , 40878.9616761361 
 612 , 40936.250734628 
 613 , 40991.2776704997 
 614 , 41057.8363464995 
 615 , 41138.8579705974 
 616 , 41212.4855223875 
 617 , 41256.0462806068 
 618 , 41277.7204487155 
 619 , 41305.9180126495 
 620 , 41356.8120530267 
 621 , 41411.9765582932 
 622 , 41449.3198663535 
 623 , 41480.7691711823 
 624 , 41544.8053131538 
 625 , 41659.9621732648 
 626 , 41776.4913328357 
 627 , 41833.0959539169 
 628 , 41818.598665452 
 629 , 41767.6753286256 
 630 , 41713.442084267 
 631 , 41676.2400529536 
 632 , 41672.6198528529 
 633 , 41702.5402382275 
 634 , 41748.4133411299 
 635 , 41793.8157314734 
 636 , 41831.5756934027 
 637 , 41857.3694161269 
 638 , 41872.9380424617 
 639 , 41887.3416372375 
 640 , 41907.9666003678 
 641 , 41930.9467779856 
 642 , 41948.8111825581 
 643 , 41959.7275782719 
 644 , 41969.5363624152 
 645 , 41983.2989271263 
 646 , 41997.9967786871 
 647 , 42007.6607988783 
 648 , 42011.2985366009 
 649 , 42015.4611938271 
 650 , 42025.3369407168 
 651 , 42032.4686057079 
 652 , 42022.816588292 
 653 , 41992.4015562756 
 654 , 41954.0259337869 
 655 , 41920.751675265 
 656 , 41895.5280725961 
 657 , 41876.6819797695 
 658 , 41865.1626619007 
 659 , 41866.7045846301 
 660 , 41886.3836661384 
 661 , 41919.5877966038 
 662 , 41956.9103566666 
 663 , 41991.2867158947 
 664 , 42020.2582505811 
 665 , 42041.6396312614 
 666 , 42050.9548889628 
 667 , 42042.5898711701 
 668 , 42021.914007474 
 669 , 42016.8365280702 
 670 , 42053.9823380715 
 671 , 42121.2580796075 
 672 , 42185.1188324796 
 673 , 42223.497346051 
 674 , 42239.3801695141 
 675 , 42239.9563584869 
 676 , 42242.1395103141 
 677 , 42268.389973099 
 678 , 42331.1117513613 
 679 , 42420.4067813381 
 680 , 42522.4424384943 
 681 , 42613.5104340927 
 682 , 42664.1917706246 
 683 , 42665.7551447336 
 684 , 42655.9107406232 
 685 , 42674.5808109634 
 686 , 42719.2004581774 
 687 , 42762.0499682861 
 688 , 42781.5161111253 
 689 , 42770.4019303052 
 690 , 42725.6938144937 
 691 , 42667.3176233488 
 692 , 42628.6464710171 
 693 , 42627.7549644634 
 694 , 42648.4992512075 
 695 , 42671.6806422859 
 696 , 42693.4842246297 
 697 , 42718.9648235186 
 698 , 42748.0041414686 
 699 , 42769.1097520923 
 700 , 42770.8917718644 
 701 , 42757.218673521 
 702 , 42740.4720251163 
 703 , 42728.3391871537 
 704 , 42718.6023472086 
 705 , 42708.523935779 
 706 , 42701.8172414512 
 707 , 42705.6061120585 
 708 , 42722.1975865118 
 709 , 42744.3910283174 
 710 , 42764.0268825283 
 711 , 42774.1828247094 
 712 , 42768.6486936846 
 713 , 42750.0702729026 
 714 , 42737.3258897351 
 715 , 42747.4206260057 
 716 , 42769.3480633029 
 717 , 42779.1699085294 
 718 , 42765.2073283898 
 719 , 42736.6701989575 
 720 , 42705.0724329317 
 721 , 42683.9089616698 
 722 , 42687.3385991324 
 723 , 42718.6500223072 
 724 , 42764.3361665362 
 725 , 42810.3482705649 
 726 , 42848.2299109084 
 727 , 42871.7894418829 
 728 , 42879.9478035253 
 729 , 42878.73476505 
 730 , 42874.4903363112 
 731 , 42872.3715582806 
 732 , 42877.0558292788 
 733 , 42890.5554742365 
 734 , 42911.5818506204 
 735 , 42938.7103730017 
 736 , 42970.8460420675 
 737 , 43006.8957479939 
 738 , 43043.1748355702 
 739 , 43073.1756743615 
 740 , 43091.9790969549 
 741 , 43101.7230033644 
 742 , 43106.2791318727 
 743 , 43108.1765875717 
 744 , 43108.6744326679 
 745 , 43109.1003110901 
 746 , 43111.1895613113 
 747 , 43116.5974444908 
 748 , 43124.2626939387 
 749 , 43130.9227257438 
 750 , 43134.1434533343 
 751 , 43134.0524029681 
 752 , 43131.5905958051 
 753 , 43132.1994793238 
 754 , 43144.385858673 
 755 , 43171.9093727885 
 756 , 43207.1202357409 
 757 , 43240.7546304235 
 758 , 43263.9593154089 
 759 , 43268.1769163311 
 760 , 43252.4112842189 
 761 , 43230.3715966073 
 762 , 43215.4500082298 
 763 , 43205.5395908156 
 764 , 43191.4521529484 
 765 , 43171.9107773833 
 766 , 43158.2205976683 
 767 , 43159.8197384962 
 768 , 43168.2288986701 
 769 , 43168.6427697662 
 770 , 43158.910358736 
 771 , 43153.044782118 
 772 , 43161.1132373151 
 773 , 43169.892209432 
 774 , 43160.0247320778 
 775 , 43127.5297050439 
 776 , 43084.095050946 
 777 , 43041.6630301408 
 778 , 43010.566911827 
 779 , 43000.2579904881 
 780 , 43011.8389924125 
 781 , 43039.7023417632 
 782 , 43076.2984380741 
 783 , 43109.3198647915 
 784 , 43126.3152862597 
 785 , 43122.1108172609 
 786 , 43096.1157049291 
 787 , 43054.908296972 
 788 , 43019.6659854639 
 789 , 43011.2619270469 
 790 , 43034.0260787702 
 791 , 43084.3240036511 
 792 , 43150.5936480434 
 793 , 43209.030715847 
 794 , 43239.8735958865 
 795 , 43252.1532621409 
 796 , 43264.6029529511 
 797 , 43283.7680282306 
 798 , 43301.9470796661 
 799 , 43312.7513450195 
 800 , 43318.3607673495 
 801 , 43323.0877267072 
 802 , 43330.6508234007 
 803 , 43344.2514268985 
 804 , 43366.2130445 
 805 , 43396.3885993523 
 806 , 43433.7830382193 
 807 , 43472.7444918931 
 808 , 43504.6581607484 
 809 , 43521.471660584 
 810 , 43516.3777593668 
 811 , 43484.3972285912 
 812 , 43433.179116258 
 813 , 43376.1447398289 
 814 , 43327.6032795145 
 815 , 43303.1127993678 
 816 , 43314.1881991642 
 817 , 43351.3676203173 
 818 , 43398.6858034555 
 819 , 43443.160248737 
 820 , 43474.8954887492 
 821 , 43486.7535287732 
 822 , 43480.4960707011 
 823 , 43460.2915295817 
 824 , 43437.3817535941 
 825 , 43428.103604414 
 826 , 43438.8104380097 
 827 , 43452.7662260676 
 828 , 43452.3229717929 
 829 , 43439.0874533775 
 830 , 43424.1823294905 
 831 , 43413.8667925713 
 832 , 43406.754820649 
 833 , 43400.5045814495 
 834 , 43391.191020171 
 835 , 43374.4639453096 
 836 , 43348.4457515321 
 837 , 43313.8614631766 
 838 , 43272.7100915223 
 839 , 43230.8849539867 
 840 , 43194.622636725 
 841 , 43163.8189917414 
 842 , 43133.9129644144 
 843 , 43105.0800697439 
 844 , 43087.9773699538 
 845 , 43092.2368774794 
 846 , 43109.1218216973 
 847 , 43121.6575592438 
 848 , 43124.7637954186 
 849 , 43130.1895270177 
 850 , 43146.666672035 
 851 , 43163.0357623131 
 852 , 43163.1002068886 
 853 , 43145.1223016101 
 854 , 43120.6277256064 
 855 , 43099.2785692682 
 856 , 43084.0738587265 
 857 , 43076.6566910065 
 858 , 43076.7646204127 
 859 , 43082.9903195786 
 860 , 43091.6850340861 
 861 , 43095.2998099972 
 862 , 43087.940347602 
 863 , 43075.6628452964 
 864 , 43068.56383998 
 865 , 43069.0432871029 
 866 , 43071.0389217656 
 867 , 43070.3024805997 
 868 , 43070.2403075706 
 869 , 43076.2685464592 
 870 , 43098.6109539993 
 871 , 43150.6921630785 
 872 , 43233.9386204372 
 873 , 43325.4940220342 
 874 , 43403.2801057355 
 875 , 43469.9886924136 
 876 , 43538.2896095673 
 877 , 43613.7327911877 
 878 , 43693.1682541143 
 879 , 43772.7529667979 
 880 , 43848.0148610959 
 881 , 43914.6807280854 
 882 , 43973.3145227573 
 883 , 44027.9822799058 
 884 , 44073.9813252765 
 885 , 44087.726893229 
 886 , 44046.9424302929 
 887 , 43955.6199304301 
 888 , 43829.2240781479 
 889 , 43690.3406958498 
 890 , 43570.3697446372 
 891 , 43490.2216057885 
 892 , 43428.9456679146 
 893 , 43357.2284127509 
 894 , 43267.208446484 
 895 , 43166.6731342642 
 896 , 43066.930474738 
 897 , 42985.8757338943 
 898 , 42938.3355876949 
 899 , 42913.0443823178 
 900 , 42888.3491751772 
 901 , 42853.3584876672 
 902 , 42809.9019539789 
 903 , 42763.8546107783 
 904 , 42732.68137848 
 905 , 42733.632198015 
 906 , 42750.5040294271 
 907 , 42744.9707372409 
 908 , 42699.9811891339 
 909 , 42638.9967937929 
 910 , 42587.1394631555 
 911 , 42553.3298145705 
 912 , 42540.6055033914 
 913 , 42551.3302155393 
 914 , 42587.1743211768 
 915 , 42641.8140951182 
 916 , 42685.3945746378 
 917 , 42687.7357282166 
 918 , 42657.6198938738 
 919 , 42625.5894697606 
 920 , 42610.2360660609 
 921 , 42611.2276089052 
 922 , 42626.6411114476 
 923 , 42654.7346734476 
 924 , 42693.025289552 
 925 , 42725.5575961705 
 926 , 42725.185960999 
 927 , 42680.1089697471 
 928 , 42614.6698826686 
 929 , 42555.8028660646 
 930 , 42512.6549524611 
 931 , 42486.4514892582 
 932 , 42473.1886227663 
 933 , 42462.6500611836 
 934 , 42447.8457312991 
 935 , 42433.9748083273 
 936 , 42427.7761708101 
 937 , 42424.3991712931 
 938 , 42411.8862938473 
 939 , 42387.0311102574 
 940 , 42361.4416904052 
 941 , 42345.3994882913 
 942 , 42335.7555572111 
 943 , 42325.5034896734 
 944 , 42312.1550278472 
 945 , 42297.0931725596 
 946 , 42283.6695145253 
 947 , 42279.4764818804 
 948 , 42290.3583682798 
 949 , 42305.9028946195 
 950 , 42309.4244466771 
 951 , 42302.3691479882 
 952 , 42306.7974092001 
 953 , 42334.191814253 
 954 , 42359.6247170123 
 955 , 42355.0223119612 
 956 , 42330.3302521548 
 957 , 42316.5208617517 
 958 , 42327.3199461262 
 959 , 42350.749214932 
 960 , 42373.4098331931 
 961 , 42384.5244095376 
 962 , 42374.3427818233 
 963 , 42337.8422061411 
 964 , 42273.4738346919 
 965 , 42188.6379586422 
 966 , 42107.2445884882 
 967 , 42050.9019533096 
 968 , 42019.4147412545 
 969 , 42005.3987155011 
 970 , 42002.0047660325 
 971 , 42002.8720896452 
 972 , 42004.2249575288 
 973 , 42008.1994640562 
 974 , 42017.3157192016 
 975 , 42031.1282342303 
 976 , 42047.7287909083 
 977 , 42058.793156878 
 978 , 42049.2000581825 
 979 , 42013.178601197 
 980 , 41971.8762479294 
 981 , 41948.2322172309 
 982 , 41941.943905193 
 983 , 41941.5876133861 
 984 , 41943.1566340657 
 985 , 41951.9323740228 
 986 , 41970.9694977765 
 987 , 41994.1419644704 
 988 , 42013.92764597 
 989 , 42027.4608043992 
 990 , 42034.5801904814 
 991 , 42039.1629889866 
 992 , 42050.7342940865 
 993 , 42073.6480181398 
 994 , 42091.3084460589 
 995 , 42085.544243598 
 996 , 42075.5470866302 
 997 , 42103.4666037563 
 998 , 42178.6065356342 
 999 , 42258.5126575718 
 1000 , 42312.4834853271 
 1001 , 42377.2198424666 
 1002 , 42503.4203599798 
 1003 , 42697.8994441813 
 1004 , 42937.3772035369 
 1005 , 43189.3895202985 
 1006 , 43407.039769769 
 1007 , 43542.2583327756 
 1008 , 43547.894826391 
 1009 , 43383.3710597818 
 1010 , 43093.9221869136 
 1011 , 42786.1590283567 
 1012 , 42524.8048328062 
 1013 , 42298.6405447389 
 1014 , 42094.2095680315 
 1015 , 41923.3978222654 
 1016 , 41804.0279204561 
 1017 , 41733.9852963215 
 1018 , 41696.4138662911 
 1019 , 41675.4190220922 
 1020 , 41657.4431036025 
 1021 , 41632.5757357758 
 1022 , 41606.8528071972 
 1023 , 41590.288949841 
 1024 , 41583.2556947185 
 1025 , 41579.0581401185 
 1026 , 41575.9581057564 
 1027 , 41581.2661723749 
 1028 , 41599.2942513816 
 1029 , 41616.4042920103 
 1030 , 41615.8867534155 
 1031 , 41608.8102218086 
 1032 , 41625.8450516108 
 1033 , 41672.8534251389 
 1034 , 41712.8480251303 
 1035 , 41715.2982347389 
 1036 , 41695.6675904525 
 1037 , 41679.8506402412 
 1038 , 41668.5893637049 
 1039 , 41645.7333301796 
 1040 , 41604.0387161755 
 1041 , 41550.9044712108 
 1042 , 41496.2218449718 
 1043 , 41454.6234278637 
 1044 , 41439.9654541429 
 1045 , 41444.4869758383 
 1046 , 41447.209778323 
 1047 , 41438.0016309629 
 1048 , 41422.6726436993 
 1049 , 41410.2276274381 
