11-20-2017,16:38:12
Wavenumber(cm-1),Intensity
 250 , 34389.1296072943 
 251 , 34440.0439154397 
 252 , 34469.8768081489 
 253 , 34476.7134476516 
 254 , 34471.7671689089 
 255 , 34466.8466101655 
 256 , 34465.8045522821 
 257 , 34466.5762255077 
 258 , 34468.1087450058 
 259 , 34475.5778021801 
 260 , 34496.2402562265 
 261 , 34534.1166049695 
 262 , 34585.7740510772 
 263 , 34646.6826985898 
 264 , 34710.9852571591 
 265 , 34771.4216323294 
 266 , 34821.7072142191 
 267 , 34864.0493372561 
 268 , 34904.7917817098 
 269 , 34948.3727514361 
 270 , 34992.8181573532 
 271 , 35034.897899195 
 272 , 35075.0396269402 
 273 , 35118.9995003405 
 274 , 35172.3649187076 
 275 , 35233.4901698804 
 276 , 35295.8757071036 
 277 , 35353.8313474307 
 278 , 35405.8650665254 
 279 , 35451.7160209096 
 280 , 35491.9837753776 
 281 , 35528.9550214467 
 282 , 35565.1093335473 
 283 , 35602.8652327488 
 284 , 35644.5870562448 
 285 , 35692.2747663008 
 286 , 35745.6147001476 
 287 , 35803.3796539978 
 288 , 35862.4602074304 
 289 , 35914.8898441799 
 290 , 35952.2477595546 
 291 , 35975.4512997968 
 292 , 35996.0149510927 
 293 , 36024.5242684763 
 294 , 36058.7603051358 
 295 , 36090.0223220563 
 296 , 36112.2439476017 
 297 , 36128.2792275657 
 298 , 36142.7695275719 
 299 , 36157.3968640997 
 300 , 36169.6751334903 
 301 , 36177.3935707671 
 302 , 36184.9160830232 
 303 , 36200.7222192754 
 304 , 36230.5089585778 
 305 , 36268.1684821491 
 306 , 36304.6093396752 
 307 , 36336.7349951506 
 308 , 36371.6348859785 
 309 , 36416.830396093 
 310 , 36471.871881847 
 311 , 36530.3597765029 
 312 , 36587.4542951529 
 313 , 36646.8343737951 
 314 , 36714.7923836151 
 315 , 36791.5745446609 
 316 , 36865.3829858177 
 317 , 36923.6909239996 
 318 , 36966.3987459748 
 319 , 37004.1043917774 
 320 , 37045.9291061854 
 321 , 37090.3401312053 
 322 , 37131.9781843498 
 323 , 37171.5441596172 
 324 , 37223.4827286389 
 325 , 37302.8130440463 
 326 , 37396.2701847318 
 327 , 37463.3922314207 
 328 , 37471.0465133724 
 329 , 37441.521963401 
 330 , 37419.4479876173 
 331 , 37433.9856574077 
 332 , 37475.5019544062 
 333 , 37528.6343047285 
 334 , 37583.6690323855 
 335 , 37636.7734798362 
 336 , 37685.0427980708 
 337 , 37730.2417384667 
 338 , 37776.1614166205 
 339 , 37823.0327630849 
 340 , 37861.5783281103 
 341 , 37881.3141157533 
 342 , 37881.5198585831 
 343 , 37872.1447461624 
 344 , 37862.9357827523 
 345 , 37858.069380636 
 346 , 37859.1937290098 
 347 , 37866.6330833761 
 348 , 37877.1086083389 
 349 , 37886.755613475 
 350 , 37892.4824611753 
 351 , 37892.0571347563 
 352 , 37884.9384255819 
 353 , 37883.0233547409 
 354 , 37903.8811876422 
 355 , 37957.1853932794 
 356 , 38030.912751883 
 357 , 38109.6695335589 
 358 , 38186.5112912845 
 359 , 38263.7624184609 
 360 , 38343.6492730679 
 361 , 38424.2047954296 
 362 , 38501.597661439 
 363 , 38573.8447004055 
 364 , 38643.8574846138 
 365 , 38715.2025916547 
 366 , 38787.8763506539 
 367 , 38858.1290119826 
 368 , 38921.5173222936 
 369 , 38970.0552332104 
 370 , 38994.2930611269 
 371 , 38992.8706583564 
 372 , 38984.297810403 
 373 , 38989.5470610644 
 374 , 39017.9652616591 
 375 , 39067.5865214854 
 376 , 39134.1414876978 
 377 , 39201.9953778515 
 378 , 39251.2194992821 
 379 , 39272.2963356027 
 380 , 39278.7649534414 
 381 , 39286.8538122296 
 382 , 39305.4598819245 
 383 , 39337.0654436868 
 384 , 39382.9261811981 
 385 , 39438.8457311992 
 386 , 39498.8049785743 
 387 , 39557.7803562648 
 388 , 39612.6762703394 
 389 , 39661.0934858095 
 390 , 39707.6518533964 
 391 , 39762.3223265671 
 392 , 39830.6259644695 
 393 , 39897.2270789993 
 394 , 39941.10324939 
 395 , 39958.2141674819 
 396 , 39972.3967641154 
 397 , 40007.9132396827 
 398 , 40063.9893031417 
 399 , 40123.7555794839 
 400 , 40174.51205712 
 401 , 40219.9988390161 
 402 , 40267.6222099163 
 403 , 40318.6976385529 
 404 , 40366.2895427064 
 405 , 40404.5370122435 
 406 , 40442.3296313122 
 407 , 40496.2689728591 
 408 , 40574.8496349414 
 409 , 40662.6570304807 
 410 , 40740.4359911422 
 411 , 40802.5643190124 
 412 , 40858.2393860804 
 413 , 40915.4711731344 
 414 , 40969.3641786791 
 415 , 41009.769756397 
 416 , 41033.6540252492 
 417 , 41054.0194611895 
 418 , 41085.2387369542 
 419 , 41127.4710167196 
 420 , 41168.840480058 
 421 , 41199.872564329 
 422 , 41224.761416142 
 423 , 41251.8358030855 
 424 , 41284.9936229467 
 425 , 41320.6340548914 
 426 , 41354.8120382072 
 427 , 41387.9338465177 
 428 , 41423.1796594859 
 429 , 41461.5279757015 
 430 , 41496.0539461166 
 431 , 41518.331066751 
 432 , 41528.281743779 
 433 , 41536.2295588846 
 434 , 41550.875853461 
 435 , 41563.5773708396 
 436 , 41557.7483702791 
 437 , 41532.517628923 
 438 , 41525.7217460408 
 439 , 41578.4457225915 
 440 , 41682.7202643738 
 441 , 41786.7147428138 
 442 , 41848.1037425409 
 443 , 41880.6116844404 
 444 , 41915.4666050666 
 445 , 41966.6206136667 
 446 , 42018.7830410667 
 447 , 42055.5457425231 
 448 , 42079.3284786207 
 449 , 42104.2235994561 
 450 , 42139.5066151035 
 451 , 42177.9463062923 
 452 , 42209.118323745 
 453 , 42229.015016624 
 454 , 42240.9956431965 
 455 , 42249.6011681533 
 456 , 42264.5553331407 
 457 , 42297.6614337675 
 458 , 42353.2760788384 
 459 , 42419.9370865337 
 460 , 42484.6636885581 
 461 , 42541.8281926473 
 462 , 42591.3861477676 
 463 , 42634.4308606171 
 464 , 42676.1242152711 
 465 , 42722.4766337392 
 466 , 42771.455317751 
 467 , 42810.1223050194 
 468 , 42826.9220036203 
 469 , 42827.6024459446 
 470 , 42826.2173233908 
 471 , 42833.4232546037 
 472 , 42851.4396983098 
 473 , 42881.2102969193 
 474 , 42923.504095535 
 475 , 42978.9413662771 
 476 , 43045.9527369586 
 477 , 43113.006126422 
 478 , 43165.9773937937 
 479 , 43203.6315227174 
 480 , 43243.7037742288 
 481 , 43301.1081612491 
 482 , 43353.0349028629 
 483 , 43357.3312926215 
 484 , 43297.3799881904 
 485 , 43222.730427783 
 486 , 43191.1634070303 
 487 , 43218.6034725066 
 488 , 43284.209461732 
 489 , 43366.5186034118 
 490 , 43446.9798175871 
 491 , 43508.0534036379 
 492 , 43540.9799627568 
 493 , 43549.87854475 
 494 , 43542.0359987679 
 495 , 43542.8754557596 
 496 , 43586.8836390977 
 497 , 43684.8379246745 
 498 , 43788.7141447297 
 499 , 43844.5933024019 
 500 , 43849.7911060918 
 501 , 43844.2626515674 
 502 , 43860.2073221025 
 503 , 43891.1677294499 
 504 , 43920.6278863856 
 505 , 43942.7914166777 
 506 , 43966.2513382511 
 507 , 43998.0898508051 
 508 , 44026.6467498382 
 509 , 44031.8808729059 
 510 , 44005.7040400634 
 511 , 43966.05286117 
 512 , 43933.8996686818 
 513 , 43925.0958360846 
 514 , 43951.78298567 
 515 , 44017.3340857392 
 516 , 44094.0698389669 
 517 , 44148.0243947323 
 518 , 44164.0623693247 
 519 , 44148.3262691039 
 520 , 44112.0695853588 
 521 , 44090.0728066057 
 522 , 44125.2914745069 
 523 , 44221.4756970527 
 524 , 44313.784732687 
 525 , 44337.8703703308 
 526 , 44303.7825467317 
 527 , 44264.5041150501 
 528 , 44257.9174970191 
 529 , 44279.2203496005 
 530 , 44316.6416092806 
 531 , 44363.09477502 
 532 , 44415.5950720147 
 533 , 44470.3923101948 
 534 , 44519.8300028629 
 535 , 44555.4548988522 
 536 , 44578.9104044637 
 537 , 44604.9925506832 
 538 , 44646.7665650459 
 539 , 44699.4537147121 
 540 , 44750.8657041637 
 541 , 44794.3073837209 
 542 , 44833.7391014451 
 543 , 44873.958250216 
 544 , 44915.5756657429 
 545 , 44956.6012738318 
 546 , 44996.2839043638 
 547 , 45037.5566299653 
 548 , 45083.9453811578 
 549 , 45137.6971543819 
 550 , 45199.911062819 
 551 , 45270.0705091035 
 552 , 45340.8425624843 
 553 , 45403.3025513721 
 554 , 45457.9048779972 
 555 , 45517.0545280887 
 556 , 45591.2452475223 
 557 , 45673.5998674736 
 558 , 45750.3716538004 
 559 , 45811.4569309992 
 560 , 45853.3313403925 
 561 , 45873.8273481261 
 562 , 45877.3253166547 
 563 , 45871.8994233068 
 564 , 45862.5879872685 
 565 , 45846.6182901053 
 566 , 45820.7410869767 
 567 , 45793.088420082 
 568 , 45780.6817102204 
 569 , 45793.9869821346 
 570 , 45819.0603174428 
 571 , 45836.9359272598 
 572 , 45840.3973616311 
 573 , 45834.6642186419 
 574 , 45826.6867125317 
 575 , 45829.1462823149 
 576 , 45856.216416384 
 577 , 45907.0152382071 
 578 , 45959.3264894616 
 579 , 45992.2956507421 
 580 , 46006.178639785 
 581 , 46010.3260300205 
 582 , 46012.2297226389 
 583 , 46015.8110671335 
 584 , 46024.61437767 
 585 , 46042.3671279399 
 586 , 46072.8870994496 
 587 , 46114.3706448522 
 588 , 46150.9662239611 
 589 , 46165.824015727 
 590 , 46158.6866925318 
 591 , 46141.6919369538 
 592 , 46124.3493317813 
 593 , 46106.5030629835 
 594 , 46086.2054914853 
 595 , 46065.7680894252 
 596 , 46051.5662445957 
 597 , 46049.5189825733 
 598 , 46062.8639662748 
 599 , 46093.9516089181 
 600 , 46139.8513563098 
 601 , 46191.2861296515 
 602 , 46239.2477946653 
 603 , 46278.3548864218 
 604 , 46304.55188928 
 605 , 46317.0454798151 
 606 , 46319.9240934059 
 607 , 46318.5577414252 
 608 , 46324.6922553955 
 609 , 46352.777998667 
 610 , 46407.0472642992 
 611 , 46472.8261154128 
 612 , 46534.6292330956 
 613 , 46588.4076771771 
 614 , 46636.3172380572 
 615 , 46680.7116540803 
 616 , 46724.2534739877 
 617 , 46769.2040670668 
 618 , 46812.5458544765 
 619 , 46847.8054595778 
 620 , 46874.4563683804 
 621 , 46908.480820689 
 622 , 46967.5756382498 
 623 , 47052.6790334151 
 624 , 47151.6457613962 
 625 , 47250.9583328903 
 626 , 47333.7102818912 
 627 , 47382.6489803043 
 628 , 47387.480853913 
 629 , 47344.2790204703 
 630 , 47259.2002735949 
 631 , 47177.1307153119 
 632 , 47150.7413534026 
 633 , 47188.5136786416 
 634 , 47252.1968336486 
 635 , 47307.3896444886 
 636 , 47347.7821983107 
 637 , 47375.1841675491 
 638 , 47392.3401865508 
 639 , 47403.1223054685 
 640 , 47412.0756948368 
 641 , 47426.9760114875 
 642 , 47456.4460979825 
 643 , 47499.3805605024 
 644 , 47541.4416502893 
 645 , 47570.9599498485 
 646 , 47598.2616834553 
 647 , 47641.5803894315 
 648 , 47698.5497863984 
 649 , 47735.5900750317 
 650 , 47722.8871041341 
 651 , 47674.2457487667 
 652 , 47621.5804788176 
 653 , 47584.0622253095 
 654 , 47559.5414764725 
 655 , 47544.191524734 
 656 , 47536.7758652083 
 657 , 47537.2252211743 
 658 , 47543.2148681611 
 659 , 47548.3313318151 
 660 , 47547.4751733308 
 661 , 47550.0904658123 
 662 , 47572.7531266845 
 663 , 47620.6493366291 
 664 , 47676.7922330057 
 665 , 47722.9975498846 
 666 , 47753.1721319618 
 667 , 47767.6330147741 
 668 , 47768.3909780492 
 669 , 47760.8096056989 
 670 , 47750.8079264976 
 671 , 47745.6861920231 
 672 , 47753.4888416935 
 673 , 47778.1311363494 
 674 , 47814.6751621361 
 675 , 47857.2817270348 
 676 , 47902.5133361044 
 677 , 47948.3232259569 
 678 , 47994.3534460329 
 679 , 48043.9300012378 
 680 , 48100.279190192 
 681 , 48160.551674778 
 682 , 48218.3431378536 
 683 , 48271.037574998 
 684 , 48324.5951618167 
 685 , 48384.7608960197 
 686 , 48442.9553958589 
 687 , 48482.1344358711 
 688 , 48490.7657655704 
 689 , 48469.9117059511 
 690 , 48423.6198363849 
 691 , 48369.0737386353 
 692 , 48331.140410297 
 693 , 48322.4656718859 
 694 , 48328.4472549455 
 695 , 48332.1989496453 
 696 , 48330.5804567525 
 697 , 48328.4023460056 
 698 , 48330.4732422758 
 699 , 48341.3890854159 
 700 , 48364.7418901597 
 701 , 48394.6954023395 
 702 , 48420.1739530647 
 703 , 48436.2151560622 
 704 , 48450.623158768 
 705 , 48470.5678744945 
 706 , 48483.0167428198 
 707 , 48464.2620586407 
 708 , 48406.4167423718 
 709 , 48332.8115670198 
 710 , 48269.2823269437 
 711 , 48232.1508911292 
 712 , 48232.8380629849 
 713 , 48271.7318027646 
 714 , 48329.0534094912 
 715 , 48384.0885204204 
 716 , 48425.6132421582 
 717 , 48446.8748040942 
 718 , 48443.8912624982 
 719 , 48417.3308913272 
 720 , 48370.4431567104 
 721 , 48321.4036928104 
 722 , 48294.5235105308 
 723 , 48299.5822856219 
 724 , 48323.8764116136 
 725 , 48354.4115293411 
 726 , 48388.3894405307 
 727 , 48426.8258039597 
 728 , 48465.670764918 
 729 , 48493.8133958125 
 730 , 48501.2338510752 
 731 , 48486.7634207204 
 732 , 48452.5381955299 
 733 , 48410.6899034324 
 734 , 48385.7293059524 
 735 , 48397.1665524316 
 736 , 48437.0389383842 
 737 , 48489.1933014419 
 738 , 48536.8624469172 
 739 , 48562.6117819549 
 740 , 48557.7369400002 
 741 , 48549.2639641003 
 742 , 48571.5880806052 
 743 , 48622.9171267885 
 744 , 48667.2289589221 
 745 , 48678.6368027034 
 746 , 48670.7682051183 
 747 , 48664.7867857671 
 748 , 48666.3109619299 
 749 , 48668.359827533 
 750 , 48666.3450204608 
 751 , 48663.5921890654 
 752 , 48664.6682097032 
 753 , 48671.984873317 
 754 , 48686.4655386618 
 755 , 48705.4377957946 
 756 , 48717.7632419102 
 757 , 48713.1676486085 
 758 , 48702.0200735528 
 759 , 48706.3345429776 
 760 , 48734.8891779659 
 761 , 48770.4460666351 
 762 , 48795.2756761311 
 763 , 48810.9536793793 
 764 , 48827.805425744 
 765 , 48841.8241720621 
 766 , 48826.2452667252 
 767 , 48761.4372179691 
 768 , 48682.7610073548 
 769 , 48644.9749776462 
 770 , 48663.3061457288 
 771 , 48702.4865950305 
 772 , 48727.9599153904 
 773 , 48723.796775353 
 774 , 48680.5637403832 
 775 , 48614.3846622889 
 776 , 48567.4253814932 
 777 , 48568.7659724156 
 778 , 48596.5393739799 
 779 , 48618.7498955575 
 780 , 48623.3202446792 
 781 , 48614.1767288217 
 782 , 48595.9501517974 
 783 , 48573.9560358819 
 784 , 48553.7505207629 
 785 , 48542.282732657 
 786 , 48547.2874799123 
 787 , 48564.1304261907 
 788 , 48562.7179521281 
 789 , 48517.7458485116 
 790 , 48466.3048636909 
 791 , 48474.2561067046 
 792 , 48560.7973059687 
 793 , 48672.3628511326 
 794 , 48757.4175144168 
 795 , 48811.341945189 
 796 , 48845.8049580245 
 797 , 48867.4415563861 
 798 , 48876.9871099701 
 799 , 48874.1729153456 
 800 , 48856.0214060938 
 801 , 48819.965866827 
 802 , 48783.2747190223 
 803 , 48780.4483290991 
 804 , 48830.1948655544 
 805 , 48904.2392163738 
 806 , 48967.7462000461 
 807 , 49006.6616606759 
 808 , 49020.1743660816 
 809 , 49008.000668623 
 810 , 48970.4981674972 
 811 , 48910.4537662003 
 812 , 48848.3674820677 
 813 , 48812.5054319568 
 814 , 48815.577915021 
 815 , 48847.6088948695 
 816 , 48894.7657718134 
 817 , 48932.7353169479 
 818 , 48935.1906358054 
 819 , 48907.4985350526 
 820 , 48887.7952281398 
 821 , 48902.241564065 
 822 , 48931.0976563741 
 823 , 48945.8063247904 
 824 , 48930.6948300836 
 825 , 48879.5087004123 
 826 , 48800.4791104664 
 827 , 48734.4744588153 
 828 , 48721.1584726386 
 829 , 48752.1045372597 
 830 , 48795.0590088648 
 831 , 48826.2966179522 
 832 , 48835.5795491926 
 833 , 48817.2898700686 
 834 , 48784.1670389057 
 835 , 48754.4318390906 
 836 , 48731.5761501972 
 837 , 48703.5882822605 
 838 , 48664.0597453005 
 839 , 48628.0517049442 
 840 , 48613.4628765763 
 841 , 48615.715607992 
 842 , 48614.3864561517 
 843 , 48597.0130845665 
 844 , 48569.132328322 
 845 , 48538.8308500631 
 846 , 48515.6626890487 
 847 , 48509.6052696359 
 848 , 48518.6459187225 
 849 , 48523.8672748247 
 850 , 48510.4560949083 
 851 , 48488.56307896 
 852 , 48474.7893608923 
 853 , 48470.1387990836 
 854 , 48461.3095633246 
 855 , 48438.8001422092 
 856 , 48405.3613603709 
 857 , 48366.5490046917 
 858 , 48334.6201284712 
 859 , 48325.6615326497 
 860 , 48346.8463838064 
 861 , 48389.6505993649 
 862 , 48443.2341110816 
 863 , 48492.495924082 
 864 , 48521.2341736349 
 865 , 48525.3053191746 
 866 , 48513.8162020772 
 867 , 48495.960446512 
 868 , 48478.9161378413 
 869 , 48469.2710114612 
 870 , 48471.5763924051 
 871 , 48488.9869766861 
 872 , 48524.0989748625 
 873 , 48578.4386999917 
 874 , 48651.9568249 
 875 , 48734.8923434345 
 876 , 48813.7126464738 
 877 , 48882.4112361719 
 878 , 48944.1524498036 
 879 , 49004.1301973189 
 880 , 49073.08334106 
 881 , 49161.5304104468 
 882 , 49258.7393647107 
 883 , 49338.4046107632 
 884 , 49379.9210790986 
 885 , 49375.6141015323 
 886 , 49321.7956386955 
 887 , 49231.1355993183 
 888 , 49123.0759531169 
 889 , 49008.3080912803 
 890 , 48886.5925820586 
 891 , 48760.4509144354 
 892 , 48645.4682617623 
 893 , 48559.3809437939 
 894 , 48506.9047876707 
 895 , 48483.2138018044 
 896 , 48474.4740268851 
 897 , 48448.5597534692 
 898 , 48378.0079035976 
 899 , 48281.93122072 
 900 , 48197.9499197605 
 901 , 48143.3947416554 
 902 , 48111.6164830539 
 903 , 48092.210929804 
 904 , 48066.4611168083 
 905 , 48016.0003399243 
 906 , 47948.8437734029 
 907 , 47890.5216567696 
 908 , 47856.9934688712 
 909 , 47845.7360387015 
 910 , 47851.402742695 
 911 , 47863.9929594838 
 912 , 47872.1077888958 
 913 , 47871.2538015819 
 914 , 47864.0633734781 
 915 , 47853.4400830718 
 916 , 47842.1213252885 
 917 , 47832.2780116034 
 918 , 47820.8618927489 
 919 , 47801.9880905448 
 920 , 47776.0773524788 
 921 , 47753.3845335224 
 922 , 47742.6544814404 
 923 , 47741.6867895318 
 924 , 47744.9459273028 
 925 , 47744.1730590929 
 926 , 47728.8650171596 
 927 , 47695.9031087475 
 928 , 47659.3412889299 
 929 , 47634.2297554301 
 930 , 47625.4852635387 
 931 , 47633.3961216966 
 932 , 47651.5220875922 
 933 , 47665.4011907613 
 934 , 47662.4885558311 
 935 , 47638.346349278 
 936 , 47591.4015854494 
 937 , 47532.8111010319 
 938 , 47481.5643569744 
 939 , 47449.0075957234 
 940 , 47433.5068003073 
 941 , 47431.903170078 
 942 , 47439.6157598085 
 943 , 47451.8023381816 
 944 , 47466.6919674513 
 945 , 47485.127774289 
 946 , 47505.1473188741 
 947 , 47518.1420785701 
 948 , 47516.3103571476 
 949 , 47503.9112832722 
 950 , 47490.164845213 
 951 , 47479.8117526611 
 952 , 47472.4847798585 
 953 , 47467.5414115236 
 954 , 47464.3424716583 
 955 , 47462.6267215334 
 956 , 47465.7919513824 
 957 , 47479.0264530461 
 958 , 47493.6797522219 
 959 , 47480.7226397428 
 960 , 47420.6677732301 
 961 , 47340.1409903296 
 962 , 47275.739432372 
 963 , 47238.1298605411 
 964 , 47219.3739022086 
 965 , 47209.2244791096 
 966 , 47193.8933462162 
 967 , 47163.3633663275 
 968 , 47129.7191483319 
 969 , 47111.5228961698 
 970 , 47111.6978915667 
 971 , 47119.3239723953 
 972 , 47124.2645940485 
 973 , 47119.2876813663 
 974 , 47099.1016829571 
 975 , 47068.6402906668 
 976 , 47036.7701240659 
 977 , 47005.9468891911 
 978 , 46971.8109628594 
 979 , 46934.3716338723 
 980 , 46906.7048513044 
 981 , 46901.6832654046 
 982 , 46912.1471092356 
 983 , 46921.5188289447 
 984 , 46925.4929351462 
 985 , 46935.0570339793 
 986 , 46957.9995153877 
 987 , 46988.5217502127 
 988 , 47018.5399732439 
 989 , 47044.7348068363 
 990 , 47066.485891621 
 991 , 47084.1009313647 
 992 , 47099.152928768 
 993 , 47113.7359187024 
 994 , 47131.5377987656 
 995 , 47155.8344569405 
 996 , 47181.0834133061 
 997 , 47196.5370147355 
 998 , 47212.1890698707 
 999 , 47270.4921227509 
 1000 , 47400.0867789071 
 1001 , 47560.6058616366 
 1002 , 47699.2902337797 
 1003 , 47832.7068089736 
 1004 , 48024.0062120957 
 1005 , 48279.0254668474 
 1006 , 48505.9255828649 
 1007 , 48616.8463938268 
 1008 , 48583.2986336894 
 1009 , 48397.2488688829 
 1010 , 48103.798398628 
 1011 , 47786.0156134294 
 1012 , 47497.9666914644 
 1013 , 47241.3124944763 
 1014 , 47017.2076330986 
 1015 , 46849.113184394 
 1016 , 46763.7257493903 
 1017 , 46742.1105756608 
 1018 , 46731.8206866443 
 1019 , 46703.2428559706 
 1020 , 46668.9669706796 
 1021 , 46644.0801685749 
 1022 , 46634.8937548999 
 1023 , 46643.3930031346 
 1024 , 46646.7979823046 
 1025 , 46604.4466067808 
 1026 , 46511.6173493666 
 1027 , 46427.8205018927 
 1028 , 46404.5612181044 
 1029 , 46426.7011442727 
 1030 , 46461.4763253093 
 1031 , 46495.3518222475 
 1032 , 46528.5925869203 
 1033 , 46562.1587507161 
 1034 , 46597.6792707861 
 1035 , 46633.1844982467 
 1036 , 46650.8309217727 
 1037 , 46630.7957288409 
 1038 , 46582.0836039506 
 1039 , 46533.0033731752 
 1040 , 46498.0605882267 
 1041 , 46469.2743605173 
 1042 , 46439.9453608375 
 1043 , 46416.4073260524 
 1044 , 46406.5539587074 
 1045 , 46399.7109374208 
 1046 , 46374.0053716377 
 1047 , 46324.5747103555 
 1048 , 46271.3522179003 
