nm,Abs,
600.00,  0.025,
599.00,  0.026,
598.00,  0.026,
597.00,  0.027,
596.00,  0.027,
595.00,  0.028,
594.00,  0.029,
593.00,  0.029,
592.00,  0.030,
591.00,  0.031,
590.00,  0.031,
589.00,  0.032,
588.00,  0.033,
587.00,  0.034,
586.00,  0.034,
585.00,  0.035,
584.00,  0.036,
583.00,  0.036,
582.00,  0.037,
581.00,  0.038,
580.00,  0.039,
579.00,  0.039,
578.00,  0.040,
577.00,  0.040,
576.00,  0.042,
575.00,  0.042,
574.00,  0.043,
573.00,  0.043,
572.00,  0.044,
571.00,  0.045,
570.00,  0.045,
569.00,  0.046,
568.00,  0.047,
567.00,  0.048,
566.00,  0.048,
565.00,  0.049,
564.00,  0.050,
563.00,  0.050,
562.00,  0.051,
561.00,  0.051,
560.00,  0.052,
559.00,  0.053,
558.00,  0.054,
557.00,  0.054,
556.00,  0.055,
555.00,  0.055,
554.00,  0.056,
553.00,  0.057,
552.00,  0.057,
551.00,  0.058,
550.00,  0.058,
549.00,  0.059,
548.00,  0.060,
547.00,  0.060,
546.00,  0.061,
545.00,  0.062,
544.00,  0.062,
543.00,  0.063,
542.00,  0.064,
541.00,  0.064,
540.00,  0.065,
539.00,  0.066,
538.00,  0.066,
537.00,  0.067,
536.00,  0.067,
535.00,  0.068,
534.00,  0.069,
533.00,  0.069,
532.00,  0.070,
531.00,  0.070,
530.00,  0.071,
529.00,  0.071,
528.00,  0.072,
527.00,  0.072,
526.00,  0.073,
525.00,  0.073,
524.00,  0.074,
523.00,  0.074,
522.00,  0.074,
521.00,  0.074,
520.00,  0.075,
519.00,  0.075,
518.00,  0.075,
517.00,  0.076,
516.00,  0.076,
515.00,  0.076,
514.00,  0.076,
513.00,  0.076,
512.00,  0.076,
511.00,  0.077,
510.00,  0.077,
509.00,  0.077,
508.00,  0.077,
507.00,  0.077,
506.00,  0.077,
505.00,  0.077,
504.00,  0.077,
503.00,  0.077,
502.00,  0.076,
501.00,  0.076,
500.00,  0.077,
499.00,  0.077,
498.00,  0.076,
497.00,  0.076,
496.00,  0.076,
495.00,  0.076,
494.00,  0.076,
493.00,  0.076,
492.00,  0.076,
491.00,  0.076,
490.00,  0.075,
489.00,  0.075,
488.00,  0.075,
487.00,  0.075,
486.00,  0.075,
485.00,  0.075,
484.00,  0.075,
483.00,  0.075,
482.00,  0.074,
481.00,  0.075,
480.00,  0.075,
479.00,  0.075,
478.00,  0.074,
477.00,  0.074,
476.00,  0.075,
475.00,  0.075,
474.00,  0.075,
473.00,  0.075,
472.00,  0.075,
471.00,  0.075,
470.00,  0.075,
469.00,  0.075,
468.00,  0.075,
467.00,  0.075,
466.00,  0.075,
465.00,  0.075,
464.00,  0.075,
463.00,  0.075,
462.00,  0.075,
461.00,  0.075,
460.00,  0.075,
459.00,  0.075,
458.00,  0.075,
457.00,  0.075,
456.00,  0.075,
455.00,  0.075,
454.00,  0.074,
453.00,  0.075,
452.00,  0.075,
451.00,  0.075,
450.00,  0.075,
449.00,  0.075,
448.00,  0.075,
447.00,  0.075,
446.00,  0.075,
445.00,  0.075,
444.00,  0.075,
443.00,  0.074,
442.00,  0.074,
441.00,  0.074,
440.00,  0.074,
439.00,  0.074,
438.00,  0.074,
437.00,  0.074,
436.00,  0.074,
435.00,  0.074,
434.00,  0.074,
433.00,  0.074,
432.00,  0.074,
431.00,  0.074,
430.00,  0.074,
429.00,  0.074,
428.00,  0.074,
427.00,  0.074,
426.00,  0.074,
425.00,  0.074,
424.00,  0.074,
423.00,  0.074,
422.00,  0.074,
421.00,  0.074,
420.00,  0.074,
419.00,  0.074,
418.00,  0.074,
417.00,  0.074,
416.00,  0.074,
415.00,  0.074,
414.00,  0.074,
413.00,  0.074,
412.00,  0.075,
411.00,  0.075,
410.00,  0.075,
409.00,  0.075,
408.00,  0.075,
407.00,  0.076,
406.00,  0.076,
405.00,  0.077,
404.00,  0.077,
403.00,  0.077,
402.00,  0.078,
401.00,  0.078,
400.00,  0.079,
399.00,  0.080,
398.00,  0.081,
397.00,  0.081,
396.00,  0.082,
395.00,  0.083,
394.00,  0.084,
393.00,  0.085,
392.00,  0.086,
391.00,  0.086,
390.00,  0.088,
389.00,  0.088,
388.00,  0.090,
387.00,  0.091,
386.00,  0.092,
385.00,  0.094,
384.00,  0.095,
383.00,  0.097,
382.00,  0.098,
381.00,  0.099,
380.00,  0.101,
379.00,  0.102,
378.00,  0.104,
377.00,  0.106,
376.00,  0.107,
375.00,  0.110,
374.00,  0.111,
373.00,  0.114,
372.00,  0.116,
371.00,  0.119,
370.00,  0.122,
369.00,  0.125,
368.00,  0.128,
367.00,  0.132,
366.00,  0.134,
365.00,  0.141,
364.00,  0.146,
363.00,  0.152,
362.00,  0.155,
361.00,  0.160,
360.00,  0.164,
359.00,  0.177,
358.00,  0.180,
357.00,  0.182,
356.00,  0.188,
355.00,  0.195,
354.00,  0.202,
353.00,  0.205,
352.00,  0.212,
351.00,  0.224,
350.00,  0.235,
349.00,  0.236,
348.00,  0.255,
347.00,  0.260,
346.00,  0.263,
345.00,  0.277,
344.00,  0.290,
343.00,  0.303,
342.00,  0.311,
341.00,  0.318,
340.00,  0.332,
339.00,  0.346,
338.00,  0.353,
337.00,  0.359,
336.00,  0.377,
335.00,  0.382,
334.00,  0.398,
333.00,  0.412,
332.00,  0.416,
331.00,  0.423,
330.00,  0.432,
329.00,  0.439,
328.00,  0.446,
327.00,  0.451,
326.00,  0.463,
325.00,  0.474,
324.00,  0.478,
323.00,  0.487,
322.00,  0.498,
321.00,  0.504,
320.00,  0.510,
319.00,  0.522,
318.00,  0.527,
317.00,  0.533,
316.00,  0.539,
315.00,  0.552,
314.00,  0.562,
313.00,  0.569,
312.00,  0.577,
311.00,  0.584,
310.00,  0.588,
309.00,  0.602,
308.00,  0.604,
307.00,  0.616,
306.00,  0.614,
305.00,  0.635,
304.00,  0.646,
303.00,  0.647,
302.00,  0.663,
301.00,  0.677,
300.00,  0.685,
299.00,  0.692,
298.00,  0.727,
297.00,  0.736,
296.00,  0.764,
295.00,  0.817,
294.00,  0.853,
293.00,  0.895,
292.00,  0.935,
291.00,  0.983,
290.00,  1.046,
289.00,  1.116,
288.00,  1.188,
287.00,  1.256,
286.00,  1.339,
285.00,  1.403,
284.00,  1.464,
283.00,  1.525,
282.00,  1.580,
281.00,  1.629,
280.00,  1.677,
279.00,  1.723,
278.00,  1.765,
277.00,  1.803,
276.00,  1.850,
275.00,  1.883,
274.00,  1.917,
273.00,  1.952,
272.00,  1.967,
271.00,  1.992,
270.00,  2.005,
269.00,  2.016,
268.00,  2.022,
267.00,  2.028,
266.00,  2.026,
265.00,  2.021,
264.00,  2.017,
263.00,  2.005,
262.00,  1.994,
261.00,  1.982,
260.00,  1.967,
259.00,  1.951,
258.00,  1.943,
257.00,  1.929,
256.00,  1.920,
255.00,  1.918,
254.00,  1.911,
253.00,  1.914,
252.00,  1.927,
251.00,  1.940,
250.00,  1.965,
249.00,  1.996,
248.00,  2.030,
247.00,  2.092,
246.00,  2.151,
245.00,  2.217,
244.00,  2.299,
243.00,  2.382,
242.00,  2.484,
241.00,  2.555,
240.00,  2.680,
239.00,  2.748,
238.00,  2.882,
237.00,  2.938,
236.00,  2.992,
235.00,  3.066,
234.00,  3.194,
233.00,  3.188,
232.00,  3.268,
231.00,  3.311,
230.00,  3.429,
229.00,  3.305,
228.00,  3.505,
227.00,  3.497,
226.00,  3.349,
225.00,  3.307,
224.00,  3.627,
223.00,  3.366,
222.00,  3.258,
221.00,  3.490,
220.00,  3.428,
219.00,  3.457,
218.00,  3.394,
217.00,  3.507,
216.00,  3.225,
215.00,  3.520,
214.00,  3.241,
213.00,  3.352,
212.00,  3.505,
211.00,  3.386,
210.00,  3.271,
209.00,  3.426,
208.00,  3.281,
207.00,  3.161,
206.00,  3.321,
205.00,  3.263,
204.00,  3.224,
203.00,  3.106,
202.00,  3.083,
201.00,  3.000,
200.00,  2.912,
199.00,  2.872,
198.00,  2.901,
197.00,  3.016,
196.00,  2.861,
195.00,  2.744,
194.00,  2.668,
193.00,  2.564,
192.00,  2.398,
191.00,  2.431,
190.00,  2.307,
