nm,Abs,
600.00,  0.024,
599.00,  0.025,
598.00,  0.025,
597.00,  0.026,
596.00,  0.026,
595.00,  0.027,
594.00,  0.028,
593.00,  0.028,
592.00,  0.029,
591.00,  0.029,
590.00,  0.030,
589.00,  0.031,
588.00,  0.032,
587.00,  0.032,
586.00,  0.033,
585.00,  0.033,
584.00,  0.034,
583.00,  0.035,
582.00,  0.036,
581.00,  0.037,
580.00,  0.037,
579.00,  0.038,
578.00,  0.039,
577.00,  0.039,
576.00,  0.040,
575.00,  0.041,
574.00,  0.041,
573.00,  0.042,
572.00,  0.043,
571.00,  0.043,
570.00,  0.044,
569.00,  0.044,
568.00,  0.045,
567.00,  0.046,
566.00,  0.047,
565.00,  0.047,
564.00,  0.048,
563.00,  0.048,
562.00,  0.049,
561.00,  0.050,
560.00,  0.050,
559.00,  0.051,
558.00,  0.051,
557.00,  0.052,
556.00,  0.053,
555.00,  0.054,
554.00,  0.054,
553.00,  0.055,
552.00,  0.055,
551.00,  0.056,
550.00,  0.056,
549.00,  0.057,
548.00,  0.057,
547.00,  0.058,
546.00,  0.059,
545.00,  0.059,
544.00,  0.060,
543.00,  0.061,
542.00,  0.061,
541.00,  0.062,
540.00,  0.062,
539.00,  0.063,
538.00,  0.064,
537.00,  0.064,
536.00,  0.065,
535.00,  0.065,
534.00,  0.066,
533.00,  0.067,
532.00,  0.067,
531.00,  0.068,
530.00,  0.068,
529.00,  0.069,
528.00,  0.069,
527.00,  0.070,
526.00,  0.070,
525.00,  0.070,
524.00,  0.071,
523.00,  0.071,
522.00,  0.072,
521.00,  0.072,
520.00,  0.072,
519.00,  0.072,
518.00,  0.073,
517.00,  0.073,
516.00,  0.073,
515.00,  0.074,
514.00,  0.074,
513.00,  0.074,
512.00,  0.074,
511.00,  0.074,
510.00,  0.074,
509.00,  0.074,
508.00,  0.074,
507.00,  0.074,
506.00,  0.074,
505.00,  0.074,
504.00,  0.074,
503.00,  0.074,
502.00,  0.074,
501.00,  0.074,
500.00,  0.074,
499.00,  0.074,
498.00,  0.074,
497.00,  0.074,
496.00,  0.074,
495.00,  0.073,
494.00,  0.073,
493.00,  0.073,
492.00,  0.073,
491.00,  0.073,
490.00,  0.073,
489.00,  0.073,
488.00,  0.073,
487.00,  0.073,
486.00,  0.072,
485.00,  0.072,
484.00,  0.072,
483.00,  0.072,
482.00,  0.072,
481.00,  0.072,
480.00,  0.072,
479.00,  0.072,
478.00,  0.072,
477.00,  0.072,
476.00,  0.072,
475.00,  0.072,
474.00,  0.072,
473.00,  0.072,
472.00,  0.072,
471.00,  0.072,
470.00,  0.072,
469.00,  0.073,
468.00,  0.073,
467.00,  0.072,
466.00,  0.073,
465.00,  0.072,
464.00,  0.072,
463.00,  0.072,
462.00,  0.072,
461.00,  0.072,
460.00,  0.072,
459.00,  0.072,
458.00,  0.072,
457.00,  0.072,
456.00,  0.072,
455.00,  0.072,
454.00,  0.072,
453.00,  0.072,
452.00,  0.072,
451.00,  0.072,
450.00,  0.072,
449.00,  0.072,
448.00,  0.072,
447.00,  0.072,
446.00,  0.072,
445.00,  0.072,
444.00,  0.072,
443.00,  0.072,
442.00,  0.072,
441.00,  0.072,
440.00,  0.071,
439.00,  0.071,
438.00,  0.071,
437.00,  0.072,
436.00,  0.072,
435.00,  0.072,
434.00,  0.071,
433.00,  0.072,
432.00,  0.072,
431.00,  0.071,
430.00,  0.072,
429.00,  0.072,
428.00,  0.072,
427.00,  0.072,
426.00,  0.072,
425.00,  0.072,
424.00,  0.072,
423.00,  0.072,
422.00,  0.072,
421.00,  0.071,
420.00,  0.071,
419.00,  0.071,
418.00,  0.071,
417.00,  0.072,
416.00,  0.072,
415.00,  0.071,
414.00,  0.072,
413.00,  0.072,
412.00,  0.072,
411.00,  0.072,
410.00,  0.072,
409.00,  0.073,
408.00,  0.073,
407.00,  0.073,
406.00,  0.073,
405.00,  0.074,
404.00,  0.074,
403.00,  0.074,
402.00,  0.075,
401.00,  0.075,
400.00,  0.076,
399.00,  0.077,
398.00,  0.078,
397.00,  0.079,
396.00,  0.079,
395.00,  0.080,
394.00,  0.081,
393.00,  0.082,
392.00,  0.083,
391.00,  0.083,
390.00,  0.085,
389.00,  0.085,
388.00,  0.087,
387.00,  0.088,
386.00,  0.089,
385.00,  0.090,
384.00,  0.092,
383.00,  0.093,
382.00,  0.095,
381.00,  0.096,
380.00,  0.097,
379.00,  0.098,
378.00,  0.100,
377.00,  0.102,
376.00,  0.103,
375.00,  0.106,
374.00,  0.107,
373.00,  0.110,
372.00,  0.112,
371.00,  0.115,
370.00,  0.118,
369.00,  0.121,
368.00,  0.124,
367.00,  0.127,
366.00,  0.130,
365.00,  0.135,
364.00,  0.142,
363.00,  0.148,
362.00,  0.150,
361.00,  0.158,
360.00,  0.162,
359.00,  0.170,
358.00,  0.167,
357.00,  0.177,
356.00,  0.183,
355.00,  0.186,
354.00,  0.195,
353.00,  0.199,
352.00,  0.209,
351.00,  0.215,
350.00,  0.222,
349.00,  0.228,
348.00,  0.243,
347.00,  0.249,
346.00,  0.259,
345.00,  0.269,
344.00,  0.282,
343.00,  0.294,
342.00,  0.297,
341.00,  0.301,
340.00,  0.321,
339.00,  0.335,
338.00,  0.341,
337.00,  0.351,
336.00,  0.364,
335.00,  0.368,
334.00,  0.379,
333.00,  0.397,
332.00,  0.396,
331.00,  0.409,
330.00,  0.421,
329.00,  0.425,
328.00,  0.430,
327.00,  0.440,
326.00,  0.445,
325.00,  0.457,
324.00,  0.459,
323.00,  0.473,
322.00,  0.485,
321.00,  0.488,
320.00,  0.495,
319.00,  0.502,
318.00,  0.507,
317.00,  0.519,
316.00,  0.526,
315.00,  0.532,
314.00,  0.540,
313.00,  0.550,
312.00,  0.557,
311.00,  0.555,
310.00,  0.574,
309.00,  0.587,
308.00,  0.586,
307.00,  0.591,
306.00,  0.595,
305.00,  0.609,
304.00,  0.627,
303.00,  0.630,
302.00,  0.638,
301.00,  0.649,
300.00,  0.670,
299.00,  0.688,
298.00,  0.687,
297.00,  0.706,
296.00,  0.739,
295.00,  0.791,
294.00,  0.826,
293.00,  0.867,
292.00,  0.905,
291.00,  0.952,
290.00,  1.013,
289.00,  1.079,
288.00,  1.149,
287.00,  1.219,
286.00,  1.297,
285.00,  1.358,
284.00,  1.420,
283.00,  1.476,
282.00,  1.526,
281.00,  1.577,
280.00,  1.627,
279.00,  1.669,
278.00,  1.708,
277.00,  1.751,
276.00,  1.794,
275.00,  1.826,
274.00,  1.860,
273.00,  1.884,
272.00,  1.909,
271.00,  1.930,
270.00,  1.946,
269.00,  1.954,
268.00,  1.964,
267.00,  1.970,
266.00,  1.962,
265.00,  1.959,
264.00,  1.954,
263.00,  1.942,
262.00,  1.930,
261.00,  1.918,
260.00,  1.901,
259.00,  1.890,
258.00,  1.880,
257.00,  1.866,
256.00,  1.860,
255.00,  1.856,
254.00,  1.851,
253.00,  1.857,
252.00,  1.869,
251.00,  1.880,
250.00,  1.904,
249.00,  1.935,
248.00,  1.971,
247.00,  2.027,
246.00,  2.080,
245.00,  2.148,
244.00,  2.233,
243.00,  2.315,
242.00,  2.410,
241.00,  2.481,
240.00,  2.588,
239.00,  2.666,
238.00,  2.782,
237.00,  2.906,
236.00,  2.946,
235.00,  2.986,
234.00,  3.112,
233.00,  3.115,
232.00,  3.099,
231.00,  3.319,
230.00,  3.267,
229.00,  3.364,
228.00,  3.480,
227.00,  3.614,
226.00,  3.368,
225.00,  3.381,
224.00,  3.685,
223.00,  3.481,
222.00,  3.347,
221.00,  3.681,
220.00,  3.453,
219.00,  3.457,
218.00,  3.552,
217.00,  3.239,
216.00,  3.216,
215.00,  3.339,
214.00,  3.523,
213.00,  3.469,
212.00,  3.323,
211.00,  3.281,
210.00,  3.430,
209.00,  3.238,
208.00,  3.153,
207.00,  3.172,
206.00,  3.180,
205.00,  3.279,
204.00,  3.289,
203.00,  3.049,
202.00,  3.047,
201.00,  2.899,
200.00,  2.956,
199.00,  2.850,
198.00,  2.808,
197.00,  2.725,
196.00,  2.786,
195.00,  2.850,
194.00,  2.750,
193.00,  2.563,
192.00,  2.535,
191.00,  2.352,
190.00,  2.267,
