nm,Abs,
600.00,  0.024,
599.00,  0.025,
598.00,  0.026,
597.00,  0.026,
596.00,  0.027,
595.00,  0.027,
594.00,  0.028,
593.00,  0.029,
592.00,  0.029,
591.00,  0.030,
590.00,  0.031,
589.00,  0.031,
588.00,  0.032,
587.00,  0.033,
586.00,  0.034,
585.00,  0.034,
584.00,  0.035,
583.00,  0.035,
582.00,  0.036,
581.00,  0.037,
580.00,  0.038,
579.00,  0.038,
578.00,  0.039,
577.00,  0.040,
576.00,  0.041,
575.00,  0.041,
574.00,  0.042,
573.00,  0.042,
572.00,  0.043,
571.00,  0.044,
570.00,  0.044,
569.00,  0.045,
568.00,  0.046,
567.00,  0.046,
566.00,  0.047,
565.00,  0.048,
564.00,  0.048,
563.00,  0.049,
562.00,  0.049,
561.00,  0.050,
560.00,  0.051,
559.00,  0.051,
558.00,  0.052,
557.00,  0.053,
556.00,  0.053,
555.00,  0.054,
554.00,  0.055,
553.00,  0.055,
552.00,  0.056,
551.00,  0.056,
550.00,  0.057,
549.00,  0.058,
548.00,  0.058,
547.00,  0.059,
546.00,  0.059,
545.00,  0.060,
544.00,  0.061,
543.00,  0.061,
542.00,  0.062,
541.00,  0.063,
540.00,  0.063,
539.00,  0.064,
538.00,  0.064,
537.00,  0.065,
536.00,  0.066,
535.00,  0.066,
534.00,  0.067,
533.00,  0.067,
532.00,  0.068,
531.00,  0.068,
530.00,  0.069,
529.00,  0.070,
528.00,  0.070,
527.00,  0.071,
526.00,  0.071,
525.00,  0.072,
524.00,  0.072,
523.00,  0.072,
522.00,  0.073,
521.00,  0.073,
520.00,  0.073,
519.00,  0.073,
518.00,  0.074,
517.00,  0.074,
516.00,  0.074,
515.00,  0.075,
514.00,  0.075,
513.00,  0.075,
512.00,  0.075,
511.00,  0.075,
510.00,  0.075,
509.00,  0.075,
508.00,  0.075,
507.00,  0.075,
506.00,  0.075,
505.00,  0.075,
504.00,  0.075,
503.00,  0.075,
502.00,  0.075,
501.00,  0.075,
500.00,  0.075,
499.00,  0.075,
498.00,  0.075,
497.00,  0.075,
496.00,  0.075,
495.00,  0.074,
494.00,  0.074,
493.00,  0.074,
492.00,  0.074,
491.00,  0.074,
490.00,  0.074,
489.00,  0.074,
488.00,  0.074,
487.00,  0.074,
486.00,  0.073,
485.00,  0.073,
484.00,  0.073,
483.00,  0.073,
482.00,  0.073,
481.00,  0.073,
480.00,  0.073,
479.00,  0.073,
478.00,  0.073,
477.00,  0.073,
476.00,  0.073,
475.00,  0.073,
474.00,  0.073,
473.00,  0.073,
472.00,  0.073,
471.00,  0.073,
470.00,  0.073,
469.00,  0.073,
468.00,  0.073,
467.00,  0.073,
466.00,  0.073,
465.00,  0.073,
464.00,  0.073,
463.00,  0.073,
462.00,  0.073,
461.00,  0.073,
460.00,  0.073,
459.00,  0.073,
458.00,  0.074,
457.00,  0.073,
456.00,  0.073,
455.00,  0.073,
454.00,  0.073,
453.00,  0.073,
452.00,  0.073,
451.00,  0.073,
450.00,  0.073,
449.00,  0.073,
448.00,  0.073,
447.00,  0.073,
446.00,  0.073,
445.00,  0.073,
444.00,  0.073,
443.00,  0.073,
442.00,  0.072,
441.00,  0.072,
440.00,  0.072,
439.00,  0.072,
438.00,  0.072,
437.00,  0.073,
436.00,  0.073,
435.00,  0.073,
434.00,  0.072,
433.00,  0.072,
432.00,  0.073,
431.00,  0.072,
430.00,  0.072,
429.00,  0.072,
428.00,  0.072,
427.00,  0.073,
426.00,  0.073,
425.00,  0.073,
424.00,  0.072,
423.00,  0.072,
422.00,  0.072,
421.00,  0.072,
420.00,  0.072,
419.00,  0.072,
418.00,  0.072,
417.00,  0.073,
416.00,  0.073,
415.00,  0.072,
414.00,  0.073,
413.00,  0.073,
412.00,  0.073,
411.00,  0.073,
410.00,  0.073,
409.00,  0.073,
408.00,  0.074,
407.00,  0.074,
406.00,  0.074,
405.00,  0.075,
404.00,  0.075,
403.00,  0.076,
402.00,  0.076,
401.00,  0.076,
400.00,  0.077,
399.00,  0.079,
398.00,  0.079,
397.00,  0.079,
396.00,  0.080,
395.00,  0.081,
394.00,  0.082,
393.00,  0.082,
392.00,  0.084,
391.00,  0.084,
390.00,  0.086,
389.00,  0.087,
388.00,  0.088,
387.00,  0.089,
386.00,  0.090,
385.00,  0.092,
384.00,  0.093,
383.00,  0.094,
382.00,  0.096,
381.00,  0.097,
380.00,  0.098,
379.00,  0.100,
378.00,  0.102,
377.00,  0.103,
376.00,  0.105,
375.00,  0.107,
374.00,  0.109,
373.00,  0.111,
372.00,  0.114,
371.00,  0.117,
370.00,  0.120,
369.00,  0.123,
368.00,  0.126,
367.00,  0.129,
366.00,  0.132,
365.00,  0.139,
364.00,  0.142,
363.00,  0.148,
362.00,  0.152,
361.00,  0.158,
360.00,  0.166,
359.00,  0.170,
358.00,  0.177,
357.00,  0.183,
356.00,  0.184,
355.00,  0.187,
354.00,  0.194,
353.00,  0.203,
352.00,  0.208,
351.00,  0.222,
350.00,  0.222,
349.00,  0.227,
348.00,  0.240,
347.00,  0.249,
346.00,  0.258,
345.00,  0.271,
344.00,  0.282,
343.00,  0.287,
342.00,  0.297,
341.00,  0.302,
340.00,  0.317,
339.00,  0.332,
338.00,  0.341,
337.00,  0.353,
336.00,  0.367,
335.00,  0.369,
334.00,  0.381,
333.00,  0.395,
332.00,  0.401,
331.00,  0.412,
330.00,  0.423,
329.00,  0.426,
328.00,  0.434,
327.00,  0.445,
326.00,  0.451,
325.00,  0.461,
324.00,  0.461,
323.00,  0.471,
322.00,  0.485,
321.00,  0.488,
320.00,  0.499,
319.00,  0.504,
318.00,  0.509,
317.00,  0.516,
316.00,  0.519,
315.00,  0.532,
314.00,  0.546,
313.00,  0.552,
312.00,  0.564,
311.00,  0.568,
310.00,  0.577,
309.00,  0.588,
308.00,  0.597,
307.00,  0.599,
306.00,  0.602,
305.00,  0.615,
304.00,  0.626,
303.00,  0.631,
302.00,  0.641,
301.00,  0.659,
300.00,  0.662,
299.00,  0.683,
298.00,  0.704,
297.00,  0.701,
296.00,  0.734,
295.00,  0.801,
294.00,  0.836,
293.00,  0.877,
292.00,  0.916,
291.00,  0.962,
290.00,  1.024,
289.00,  1.093,
288.00,  1.162,
287.00,  1.230,
286.00,  1.310,
285.00,  1.374,
284.00,  1.432,
283.00,  1.488,
282.00,  1.544,
281.00,  1.596,
280.00,  1.642,
279.00,  1.684,
278.00,  1.730,
277.00,  1.770,
276.00,  1.809,
275.00,  1.844,
274.00,  1.879,
273.00,  1.905,
272.00,  1.929,
271.00,  1.950,
270.00,  1.968,
269.00,  1.977,
268.00,  1.983,
267.00,  1.989,
266.00,  1.982,
265.00,  1.980,
264.00,  1.976,
263.00,  1.966,
262.00,  1.951,
261.00,  1.941,
260.00,  1.931,
259.00,  1.914,
258.00,  1.898,
257.00,  1.892,
256.00,  1.885,
255.00,  1.875,
254.00,  1.878,
253.00,  1.881,
252.00,  1.886,
251.00,  1.903,
250.00,  1.924,
249.00,  1.954,
248.00,  1.997,
247.00,  2.044,
246.00,  2.103,
245.00,  2.177,
244.00,  2.255,
243.00,  2.329,
242.00,  2.435,
241.00,  2.497,
240.00,  2.620,
239.00,  2.715,
238.00,  2.770,
237.00,  2.921,
236.00,  2.956,
235.00,  3.019,
234.00,  3.090,
233.00,  3.110,
232.00,  3.235,
231.00,  3.261,
230.00,  3.201,
229.00,  3.289,
228.00,  3.559,
227.00,  3.266,
226.00,  3.530,
225.00,  3.342,
224.00,  3.374,
223.00,  3.387,
222.00,  3.434,
221.00,  3.283,
220.00,  3.393,
219.00,  3.290,
218.00,  3.218,
217.00,  3.407,
216.00,  3.320,
215.00,  3.285,
214.00,  3.457,
213.00,  3.160,
212.00,  3.255,
211.00,  3.331,
210.00,  3.128,
209.00,  3.163,
208.00,  3.242,
207.00,  3.073,
206.00,  3.134,
205.00,  3.108,
204.00,  2.988,
203.00,  3.071,
202.00,  2.971,
201.00,  2.953,
200.00,  2.752,
199.00,  2.889,
198.00,  2.875,
197.00,  2.760,
196.00,  2.724,
195.00,  2.648,
194.00,  2.626,
193.00,  2.455,
192.00,  2.432,
191.00,  2.288,
190.00,  2.127,
