nm,Abs,
600.00,  0.040,
599.00,  0.042,
598.00,  0.042,
597.00,  0.043,
596.00,  0.044,
595.00,  0.045,
594.00,  0.046,
593.00,  0.046,
592.00,  0.047,
591.00,  0.048,
590.00,  0.049,
589.00,  0.050,
588.00,  0.051,
587.00,  0.052,
586.00,  0.053,
585.00,  0.054,
584.00,  0.055,
583.00,  0.056,
582.00,  0.057,
581.00,  0.058,
580.00,  0.059,
579.00,  0.060,
578.00,  0.061,
577.00,  0.062,
576.00,  0.063,
575.00,  0.064,
574.00,  0.064,
573.00,  0.065,
572.00,  0.066,
571.00,  0.067,
570.00,  0.068,
569.00,  0.068,
568.00,  0.070,
567.00,  0.070,
566.00,  0.071,
565.00,  0.072,
564.00,  0.073,
563.00,  0.074,
562.00,  0.075,
561.00,  0.076,
560.00,  0.077,
559.00,  0.077,
558.00,  0.078,
557.00,  0.079,
556.00,  0.080,
555.00,  0.081,
554.00,  0.082,
553.00,  0.083,
552.00,  0.083,
551.00,  0.084,
550.00,  0.085,
549.00,  0.086,
548.00,  0.087,
547.00,  0.087,
546.00,  0.088,
545.00,  0.089,
544.00,  0.090,
543.00,  0.091,
542.00,  0.092,
541.00,  0.093,
540.00,  0.094,
539.00,  0.095,
538.00,  0.095,
537.00,  0.096,
536.00,  0.097,
535.00,  0.098,
534.00,  0.099,
533.00,  0.100,
532.00,  0.101,
531.00,  0.102,
530.00,  0.102,
529.00,  0.103,
528.00,  0.104,
527.00,  0.104,
526.00,  0.105,
525.00,  0.105,
524.00,  0.106,
523.00,  0.106,
522.00,  0.107,
521.00,  0.107,
520.00,  0.108,
519.00,  0.108,
518.00,  0.109,
517.00,  0.109,
516.00,  0.110,
515.00,  0.110,
514.00,  0.110,
513.00,  0.111,
512.00,  0.111,
511.00,  0.111,
510.00,  0.111,
509.00,  0.111,
508.00,  0.111,
507.00,  0.112,
506.00,  0.111,
505.00,  0.112,
504.00,  0.111,
503.00,  0.111,
502.00,  0.111,
501.00,  0.111,
500.00,  0.111,
499.00,  0.111,
498.00,  0.111,
497.00,  0.111,
496.00,  0.111,
495.00,  0.110,
494.00,  0.110,
493.00,  0.110,
492.00,  0.110,
491.00,  0.110,
490.00,  0.110,
489.00,  0.110,
488.00,  0.110,
487.00,  0.109,
486.00,  0.109,
485.00,  0.109,
484.00,  0.109,
483.00,  0.109,
482.00,  0.109,
481.00,  0.109,
480.00,  0.109,
479.00,  0.109,
478.00,  0.108,
477.00,  0.109,
476.00,  0.108,
475.00,  0.108,
474.00,  0.108,
473.00,  0.108,
472.00,  0.108,
471.00,  0.108,
470.00,  0.108,
469.00,  0.108,
468.00,  0.108,
467.00,  0.108,
466.00,  0.108,
465.00,  0.108,
464.00,  0.108,
463.00,  0.108,
462.00,  0.108,
461.00,  0.108,
460.00,  0.108,
459.00,  0.108,
458.00,  0.107,
457.00,  0.108,
456.00,  0.108,
455.00,  0.108,
454.00,  0.108,
453.00,  0.108,
452.00,  0.108,
451.00,  0.107,
450.00,  0.108,
449.00,  0.107,
448.00,  0.108,
447.00,  0.107,
446.00,  0.107,
445.00,  0.107,
444.00,  0.107,
443.00,  0.107,
442.00,  0.107,
441.00,  0.107,
440.00,  0.107,
439.00,  0.107,
438.00,  0.107,
437.00,  0.107,
436.00,  0.107,
435.00,  0.107,
434.00,  0.107,
433.00,  0.107,
432.00,  0.107,
431.00,  0.107,
430.00,  0.107,
429.00,  0.106,
428.00,  0.106,
427.00,  0.106,
426.00,  0.106,
425.00,  0.106,
424.00,  0.106,
423.00,  0.106,
422.00,  0.106,
421.00,  0.106,
420.00,  0.106,
419.00,  0.106,
418.00,  0.106,
417.00,  0.106,
416.00,  0.106,
415.00,  0.106,
414.00,  0.107,
413.00,  0.107,
412.00,  0.107,
411.00,  0.107,
410.00,  0.108,
409.00,  0.108,
408.00,  0.109,
407.00,  0.109,
406.00,  0.109,
405.00,  0.110,
404.00,  0.111,
403.00,  0.111,
402.00,  0.111,
401.00,  0.112,
400.00,  0.113,
399.00,  0.114,
398.00,  0.115,
397.00,  0.115,
396.00,  0.117,
395.00,  0.118,
394.00,  0.119,
393.00,  0.120,
392.00,  0.122,
391.00,  0.122,
390.00,  0.124,
389.00,  0.126,
388.00,  0.127,
387.00,  0.129,
386.00,  0.130,
385.00,  0.132,
384.00,  0.134,
383.00,  0.135,
382.00,  0.137,
381.00,  0.138,
380.00,  0.141,
379.00,  0.143,
378.00,  0.145,
377.00,  0.147,
376.00,  0.149,
375.00,  0.151,
374.00,  0.154,
373.00,  0.156,
372.00,  0.160,
371.00,  0.163,
370.00,  0.166,
369.00,  0.170,
368.00,  0.173,
367.00,  0.177,
366.00,  0.180,
365.00,  0.182,
364.00,  0.190,
363.00,  0.195,
362.00,  0.200,
361.00,  0.206,
360.00,  0.214,
359.00,  0.220,
358.00,  0.225,
357.00,  0.232,
356.00,  0.235,
355.00,  0.242,
354.00,  0.247,
353.00,  0.259,
352.00,  0.260,
351.00,  0.274,
350.00,  0.284,
349.00,  0.289,
348.00,  0.301,
347.00,  0.310,
346.00,  0.319,
345.00,  0.334,
344.00,  0.345,
343.00,  0.356,
342.00,  0.367,
341.00,  0.378,
340.00,  0.394,
339.00,  0.407,
338.00,  0.418,
337.00,  0.434,
336.00,  0.442,
335.00,  0.458,
334.00,  0.467,
333.00,  0.480,
332.00,  0.483,
331.00,  0.496,
330.00,  0.512,
329.00,  0.518,
328.00,  0.530,
327.00,  0.540,
326.00,  0.540,
325.00,  0.557,
324.00,  0.559,
323.00,  0.572,
322.00,  0.598,
321.00,  0.594,
320.00,  0.612,
319.00,  0.614,
318.00,  0.624,
317.00,  0.631,
316.00,  0.630,
315.00,  0.651,
314.00,  0.668,
313.00,  0.662,
312.00,  0.682,
311.00,  0.689,
310.00,  0.697,
309.00,  0.725,
308.00,  0.717,
307.00,  0.733,
306.00,  0.741,
305.00,  0.749,
304.00,  0.768,
303.00,  0.766,
302.00,  0.778,
301.00,  0.794,
300.00,  0.803,
299.00,  0.814,
298.00,  0.834,
297.00,  0.838,
296.00,  0.867,
295.00,  0.894,
294.00,  0.922,
293.00,  0.954,
292.00,  0.987,
291.00,  1.027,
290.00,  1.080,
289.00,  1.137,
288.00,  1.194,
287.00,  1.245,
286.00,  1.302,
285.00,  1.341,
284.00,  1.372,
283.00,  1.402,
282.00,  1.421,
281.00,  1.439,
280.00,  1.451,
279.00,  1.457,
278.00,  1.460,
277.00,  1.459,
276.00,  1.457,
275.00,  1.451,
274.00,  1.441,
273.00,  1.426,
272.00,  1.409,
271.00,  1.390,
270.00,  1.366,
269.00,  1.341,
268.00,  1.316,
267.00,  1.295,
266.00,  1.282,
265.00,  1.257,
264.00,  1.238,
263.00,  1.221,
262.00,  1.208,
261.00,  1.199,
260.00,  1.195,
259.00,  1.196,
258.00,  1.201,
257.00,  1.213,
256.00,  1.232,
255.00,  1.257,
254.00,  1.298,
253.00,  1.341,
252.00,  1.398,
251.00,  1.465,
250.00,  1.545,
249.00,  1.639,
248.00,  1.751,
247.00,  1.878,
246.00,  2.018,
245.00,  2.174,
244.00,  2.346,
243.00,  2.508,
242.00,  2.657,
241.00,  2.795,
240.00,  2.963,
239.00,  3.057,
238.00,  3.136,
237.00,  3.309,
236.00,  3.315,
235.00,  3.372,
234.00,  3.416,
233.00,  3.618,
232.00,  3.469,
231.00,  3.421,
230.00,  3.560,
229.00,  3.736,
228.00,  3.406,
227.00,  3.383,
226.00,  3.621,
225.00,  3.443,
224.00,  3.411,
223.00,  3.485,
222.00,  3.651,
221.00,  3.430,
220.00,  3.460,
219.00,  3.463,
218.00,  3.437,
217.00,  3.400,
216.00,  3.397,
215.00,  3.535,
214.00,  3.441,
213.00,  3.339,
212.00,  3.306,
211.00,  3.412,
210.00,  3.416,
209.00,  3.241,
208.00,  3.290,
207.00,  3.344,
206.00,  3.389,
205.00,  3.151,
204.00,  3.278,
203.00,  3.064,
202.00,  2.958,
201.00,  3.185,
200.00,  3.115,
199.00,  3.001,
198.00,  3.022,
197.00,  3.004,
196.00,  2.836,
195.00,  2.859,
194.00,  2.700,
193.00,  2.663,
192.00,  2.615,
191.00,  2.475,
190.00,  2.439,
