nm,Abs,
600.00,  0.040,
599.00,  0.042,
598.00,  0.042,
597.00,  0.043,
596.00,  0.044,
595.00,  0.044,
594.00,  0.045,
593.00,  0.046,
592.00,  0.047,
591.00,  0.048,
590.00,  0.049,
589.00,  0.050,
588.00,  0.051,
587.00,  0.052,
586.00,  0.053,
585.00,  0.053,
584.00,  0.054,
583.00,  0.056,
582.00,  0.056,
581.00,  0.058,
580.00,  0.058,
579.00,  0.059,
578.00,  0.060,
577.00,  0.061,
576.00,  0.062,
575.00,  0.063,
574.00,  0.064,
573.00,  0.064,
572.00,  0.065,
571.00,  0.066,
570.00,  0.067,
569.00,  0.068,
568.00,  0.068,
567.00,  0.069,
566.00,  0.070,
565.00,  0.071,
564.00,  0.072,
563.00,  0.072,
562.00,  0.073,
561.00,  0.074,
560.00,  0.075,
559.00,  0.076,
558.00,  0.076,
557.00,  0.077,
556.00,  0.078,
555.00,  0.079,
554.00,  0.080,
553.00,  0.080,
552.00,  0.081,
551.00,  0.081,
550.00,  0.082,
549.00,  0.083,
548.00,  0.084,
547.00,  0.084,
546.00,  0.085,
545.00,  0.086,
544.00,  0.087,
543.00,  0.088,
542.00,  0.088,
541.00,  0.089,
540.00,  0.090,
539.00,  0.091,
538.00,  0.092,
537.00,  0.092,
536.00,  0.093,
535.00,  0.094,
534.00,  0.095,
533.00,  0.095,
532.00,  0.096,
531.00,  0.097,
530.00,  0.098,
529.00,  0.097,
528.00,  0.098,
527.00,  0.098,
526.00,  0.099,
525.00,  0.099,
524.00,  0.100,
523.00,  0.100,
522.00,  0.101,
521.00,  0.101,
520.00,  0.102,
519.00,  0.102,
518.00,  0.102,
517.00,  0.103,
516.00,  0.103,
515.00,  0.103,
514.00,  0.103,
513.00,  0.103,
512.00,  0.104,
511.00,  0.104,
510.00,  0.104,
509.00,  0.104,
508.00,  0.104,
507.00,  0.104,
506.00,  0.104,
505.00,  0.104,
504.00,  0.103,
503.00,  0.103,
502.00,  0.104,
501.00,  0.103,
500.00,  0.103,
499.00,  0.103,
498.00,  0.103,
497.00,  0.103,
496.00,  0.103,
495.00,  0.102,
494.00,  0.102,
493.00,  0.102,
492.00,  0.102,
491.00,  0.102,
490.00,  0.102,
489.00,  0.101,
488.00,  0.101,
487.00,  0.101,
486.00,  0.101,
485.00,  0.101,
484.00,  0.101,
483.00,  0.100,
482.00,  0.101,
481.00,  0.100,
480.00,  0.100,
479.00,  0.100,
478.00,  0.100,
477.00,  0.100,
476.00,  0.100,
475.00,  0.100,
474.00,  0.100,
473.00,  0.100,
472.00,  0.100,
471.00,  0.100,
470.00,  0.100,
469.00,  0.100,
468.00,  0.100,
467.00,  0.100,
466.00,  0.100,
465.00,  0.100,
464.00,  0.100,
463.00,  0.099,
462.00,  0.099,
461.00,  0.100,
460.00,  0.100,
459.00,  0.099,
458.00,  0.100,
457.00,  0.099,
456.00,  0.099,
455.00,  0.100,
454.00,  0.100,
453.00,  0.100,
452.00,  0.100,
451.00,  0.100,
450.00,  0.100,
449.00,  0.100,
448.00,  0.100,
447.00,  0.100,
446.00,  0.100,
445.00,  0.101,
444.00,  0.100,
443.00,  0.100,
442.00,  0.101,
441.00,  0.101,
440.00,  0.101,
439.00,  0.101,
438.00,  0.101,
437.00,  0.101,
436.00,  0.102,
435.00,  0.101,
434.00,  0.101,
433.00,  0.101,
432.00,  0.101,
431.00,  0.101,
430.00,  0.102,
429.00,  0.101,
428.00,  0.102,
427.00,  0.102,
426.00,  0.102,
425.00,  0.102,
424.00,  0.102,
423.00,  0.102,
422.00,  0.102,
421.00,  0.102,
420.00,  0.103,
419.00,  0.103,
418.00,  0.103,
417.00,  0.104,
416.00,  0.104,
415.00,  0.104,
414.00,  0.104,
413.00,  0.105,
412.00,  0.106,
411.00,  0.106,
410.00,  0.106,
409.00,  0.107,
408.00,  0.108,
407.00,  0.108,
406.00,  0.109,
405.00,  0.110,
404.00,  0.111,
403.00,  0.111,
402.00,  0.112,
401.00,  0.113,
400.00,  0.114,
399.00,  0.116,
398.00,  0.116,
397.00,  0.118,
396.00,  0.119,
395.00,  0.121,
394.00,  0.123,
393.00,  0.124,
392.00,  0.126,
391.00,  0.128,
390.00,  0.130,
389.00,  0.132,
388.00,  0.133,
387.00,  0.135,
386.00,  0.137,
385.00,  0.140,
384.00,  0.142,
383.00,  0.144,
382.00,  0.147,
381.00,  0.149,
380.00,  0.151,
379.00,  0.153,
378.00,  0.157,
377.00,  0.159,
376.00,  0.162,
375.00,  0.165,
374.00,  0.167,
373.00,  0.171,
372.00,  0.175,
371.00,  0.178,
370.00,  0.183,
369.00,  0.187,
368.00,  0.192,
367.00,  0.196,
366.00,  0.199,
365.00,  0.203,
364.00,  0.210,
363.00,  0.215,
362.00,  0.222,
361.00,  0.226,
360.00,  0.237,
359.00,  0.239,
358.00,  0.240,
357.00,  0.257,
356.00,  0.261,
355.00,  0.262,
354.00,  0.272,
353.00,  0.288,
352.00,  0.300,
351.00,  0.299,
350.00,  0.318,
349.00,  0.326,
348.00,  0.331,
347.00,  0.348,
346.00,  0.357,
345.00,  0.377,
344.00,  0.388,
343.00,  0.401,
342.00,  0.414,
341.00,  0.430,
340.00,  0.436,
339.00,  0.453,
338.00,  0.470,
337.00,  0.488,
336.00,  0.493,
335.00,  0.509,
334.00,  0.515,
333.00,  0.533,
332.00,  0.544,
331.00,  0.554,
330.00,  0.570,
329.00,  0.573,
328.00,  0.589,
327.00,  0.598,
326.00,  0.611,
325.00,  0.626,
324.00,  0.631,
323.00,  0.648,
322.00,  0.653,
321.00,  0.661,
320.00,  0.674,
319.00,  0.685,
318.00,  0.692,
317.00,  0.696,
316.00,  0.717,
315.00,  0.716,
314.00,  0.723,
313.00,  0.740,
312.00,  0.744,
311.00,  0.751,
310.00,  0.774,
309.00,  0.775,
308.00,  0.780,
307.00,  0.802,
306.00,  0.804,
305.00,  0.814,
304.00,  0.815,
303.00,  0.824,
302.00,  0.846,
301.00,  0.839,
300.00,  0.849,
299.00,  0.872,
298.00,  0.883,
297.00,  0.873,
296.00,  0.915,
295.00,  0.980,
294.00,  1.005,
293.00,  1.033,
292.00,  1.063,
291.00,  1.096,
290.00,  1.144,
289.00,  1.192,
288.00,  1.243,
287.00,  1.287,
286.00,  1.335,
285.00,  1.367,
284.00,  1.397,
283.00,  1.420,
282.00,  1.438,
281.00,  1.450,
280.00,  1.459,
279.00,  1.465,
278.00,  1.466,
277.00,  1.465,
276.00,  1.462,
275.00,  1.458,
274.00,  1.449,
273.00,  1.434,
272.00,  1.418,
271.00,  1.401,
270.00,  1.379,
269.00,  1.356,
268.00,  1.334,
267.00,  1.313,
266.00,  1.301,
265.00,  1.277,
264.00,  1.259,
263.00,  1.243,
262.00,  1.233,
261.00,  1.224,
260.00,  1.221,
259.00,  1.223,
258.00,  1.229,
257.00,  1.241,
256.00,  1.260,
255.00,  1.284,
254.00,  1.324,
253.00,  1.365,
252.00,  1.418,
251.00,  1.480,
250.00,  1.555,
249.00,  1.644,
248.00,  1.747,
247.00,  1.866,
246.00,  1.998,
245.00,  2.138,
244.00,  2.292,
243.00,  2.444,
242.00,  2.601,
241.00,  2.711,
240.00,  2.834,
239.00,  2.959,
238.00,  3.061,
237.00,  3.174,
236.00,  3.241,
235.00,  3.246,
234.00,  3.254,
233.00,  3.285,
232.00,  3.281,
231.00,  3.325,
230.00,  3.414,
229.00,  3.431,
228.00,  3.392,
227.00,  3.408,
226.00,  3.446,
225.00,  3.420,
224.00,  3.382,
223.00,  3.382,
222.00,  3.419,
221.00,  3.321,
220.00,  3.261,
219.00,  3.310,
218.00,  3.285,
217.00,  3.194,
216.00,  3.161,
215.00,  3.169,
214.00,  3.199,
213.00,  3.274,
212.00,  3.271,
211.00,  3.226,
210.00,  3.180,
209.00,  3.178,
208.00,  3.259,
207.00,  3.212,
206.00,  3.162,
205.00,  3.160,
204.00,  3.019,
203.00,  2.943,
202.00,  2.903,
201.00,  2.994,
200.00,  2.923,
199.00,  2.911,
198.00,  2.893,
197.00,  2.888,
196.00,  2.736,
195.00,  2.707,
194.00,  2.594,
193.00,  2.599,
192.00,  2.442,
191.00,  2.491,
190.00,  2.186,
