nm,Abs,
600.00,  0.040,
599.00,  0.041,
598.00,  0.041,
597.00,  0.042,
596.00,  0.043,
595.00,  0.044,
594.00,  0.045,
593.00,  0.045,
592.00,  0.046,
591.00,  0.047,
590.00,  0.048,
589.00,  0.049,
588.00,  0.050,
587.00,  0.051,
586.00,  0.052,
585.00,  0.053,
584.00,  0.054,
583.00,  0.055,
582.00,  0.056,
581.00,  0.057,
580.00,  0.058,
579.00,  0.059,
578.00,  0.060,
577.00,  0.060,
576.00,  0.061,
575.00,  0.062,
574.00,  0.063,
573.00,  0.064,
572.00,  0.065,
571.00,  0.065,
570.00,  0.066,
569.00,  0.067,
568.00,  0.068,
567.00,  0.069,
566.00,  0.070,
565.00,  0.070,
564.00,  0.071,
563.00,  0.072,
562.00,  0.073,
561.00,  0.073,
560.00,  0.074,
559.00,  0.075,
558.00,  0.076,
557.00,  0.077,
556.00,  0.077,
555.00,  0.078,
554.00,  0.079,
553.00,  0.080,
552.00,  0.080,
551.00,  0.081,
550.00,  0.082,
549.00,  0.082,
548.00,  0.083,
547.00,  0.084,
546.00,  0.085,
545.00,  0.086,
544.00,  0.086,
543.00,  0.087,
542.00,  0.088,
541.00,  0.089,
540.00,  0.090,
539.00,  0.091,
538.00,  0.091,
537.00,  0.092,
536.00,  0.093,
535.00,  0.094,
534.00,  0.094,
533.00,  0.095,
532.00,  0.096,
531.00,  0.096,
530.00,  0.097,
529.00,  0.097,
528.00,  0.099,
527.00,  0.099,
526.00,  0.099,
525.00,  0.100,
524.00,  0.100,
523.00,  0.101,
522.00,  0.101,
521.00,  0.101,
520.00,  0.102,
519.00,  0.102,
518.00,  0.102,
517.00,  0.103,
516.00,  0.103,
515.00,  0.103,
514.00,  0.104,
513.00,  0.104,
512.00,  0.104,
511.00,  0.104,
510.00,  0.104,
509.00,  0.104,
508.00,  0.104,
507.00,  0.104,
506.00,  0.104,
505.00,  0.104,
504.00,  0.104,
503.00,  0.104,
502.00,  0.104,
501.00,  0.104,
500.00,  0.104,
499.00,  0.103,
498.00,  0.103,
497.00,  0.103,
496.00,  0.103,
495.00,  0.103,
494.00,  0.102,
493.00,  0.102,
492.00,  0.102,
491.00,  0.102,
490.00,  0.102,
489.00,  0.102,
488.00,  0.102,
487.00,  0.101,
486.00,  0.101,
485.00,  0.101,
484.00,  0.101,
483.00,  0.101,
482.00,  0.101,
481.00,  0.101,
480.00,  0.101,
479.00,  0.101,
478.00,  0.101,
477.00,  0.101,
476.00,  0.100,
475.00,  0.100,
474.00,  0.100,
473.00,  0.100,
472.00,  0.100,
471.00,  0.100,
470.00,  0.100,
469.00,  0.100,
468.00,  0.100,
467.00,  0.100,
466.00,  0.100,
465.00,  0.100,
464.00,  0.100,
463.00,  0.100,
462.00,  0.100,
461.00,  0.100,
460.00,  0.100,
459.00,  0.100,
458.00,  0.100,
457.00,  0.100,
456.00,  0.100,
455.00,  0.101,
454.00,  0.100,
453.00,  0.100,
452.00,  0.101,
451.00,  0.101,
450.00,  0.101,
449.00,  0.101,
448.00,  0.101,
447.00,  0.101,
446.00,  0.101,
445.00,  0.101,
444.00,  0.101,
443.00,  0.101,
442.00,  0.101,
441.00,  0.101,
440.00,  0.101,
439.00,  0.101,
438.00,  0.101,
437.00,  0.102,
436.00,  0.102,
435.00,  0.102,
434.00,  0.102,
433.00,  0.102,
432.00,  0.102,
431.00,  0.102,
430.00,  0.102,
429.00,  0.102,
428.00,  0.102,
427.00,  0.102,
426.00,  0.103,
425.00,  0.102,
424.00,  0.102,
423.00,  0.102,
422.00,  0.103,
421.00,  0.103,
420.00,  0.103,
419.00,  0.103,
418.00,  0.104,
417.00,  0.104,
416.00,  0.104,
415.00,  0.105,
414.00,  0.105,
413.00,  0.105,
412.00,  0.106,
411.00,  0.107,
410.00,  0.107,
409.00,  0.108,
408.00,  0.108,
407.00,  0.109,
406.00,  0.110,
405.00,  0.111,
404.00,  0.112,
403.00,  0.112,
402.00,  0.113,
401.00,  0.114,
400.00,  0.115,
399.00,  0.117,
398.00,  0.118,
397.00,  0.119,
396.00,  0.121,
395.00,  0.122,
394.00,  0.124,
393.00,  0.126,
392.00,  0.128,
391.00,  0.129,
390.00,  0.131,
389.00,  0.133,
388.00,  0.134,
387.00,  0.137,
386.00,  0.139,
385.00,  0.141,
384.00,  0.144,
383.00,  0.146,
382.00,  0.148,
381.00,  0.150,
380.00,  0.153,
379.00,  0.155,
378.00,  0.158,
377.00,  0.161,
376.00,  0.163,
375.00,  0.167,
374.00,  0.169,
373.00,  0.173,
372.00,  0.176,
371.00,  0.180,
370.00,  0.184,
369.00,  0.189,
368.00,  0.193,
367.00,  0.198,
366.00,  0.201,
365.00,  0.205,
364.00,  0.213,
363.00,  0.217,
362.00,  0.224,
361.00,  0.225,
360.00,  0.241,
359.00,  0.251,
358.00,  0.249,
357.00,  0.257,
356.00,  0.268,
355.00,  0.269,
354.00,  0.280,
353.00,  0.291,
352.00,  0.297,
351.00,  0.311,
350.00,  0.322,
349.00,  0.325,
348.00,  0.344,
347.00,  0.354,
346.00,  0.361,
345.00,  0.384,
344.00,  0.398,
343.00,  0.407,
342.00,  0.425,
341.00,  0.431,
340.00,  0.443,
339.00,  0.458,
338.00,  0.473,
337.00,  0.491,
336.00,  0.506,
335.00,  0.522,
334.00,  0.531,
333.00,  0.546,
332.00,  0.549,
331.00,  0.563,
330.00,  0.576,
329.00,  0.581,
328.00,  0.603,
327.00,  0.610,
326.00,  0.616,
325.00,  0.623,
324.00,  0.641,
323.00,  0.648,
322.00,  0.657,
321.00,  0.671,
320.00,  0.688,
319.00,  0.699,
318.00,  0.698,
317.00,  0.714,
316.00,  0.718,
315.00,  0.730,
314.00,  0.738,
313.00,  0.750,
312.00,  0.756,
311.00,  0.768,
310.00,  0.785,
309.00,  0.785,
308.00,  0.801,
307.00,  0.803,
306.00,  0.814,
305.00,  0.831,
304.00,  0.832,
303.00,  0.836,
302.00,  0.851,
301.00,  0.857,
300.00,  0.869,
299.00,  0.881,
298.00,  0.896,
297.00,  0.905,
296.00,  0.908,
295.00,  0.991,
294.00,  1.016,
293.00,  1.047,
292.00,  1.075,
291.00,  1.110,
290.00,  1.157,
289.00,  1.207,
288.00,  1.257,
287.00,  1.301,
286.00,  1.349,
285.00,  1.383,
284.00,  1.411,
283.00,  1.436,
282.00,  1.453,
281.00,  1.469,
280.00,  1.481,
279.00,  1.484,
278.00,  1.487,
277.00,  1.487,
276.00,  1.482,
275.00,  1.475,
274.00,  1.464,
273.00,  1.454,
272.00,  1.438,
271.00,  1.419,
270.00,  1.397,
269.00,  1.375,
268.00,  1.350,
267.00,  1.330,
266.00,  1.319,
265.00,  1.293,
264.00,  1.276,
263.00,  1.259,
262.00,  1.248,
261.00,  1.240,
260.00,  1.237,
259.00,  1.238,
258.00,  1.246,
257.00,  1.257,
256.00,  1.276,
255.00,  1.300,
254.00,  1.342,
253.00,  1.383,
252.00,  1.437,
251.00,  1.501,
250.00,  1.577,
249.00,  1.666,
248.00,  1.772,
247.00,  1.891,
246.00,  2.025,
245.00,  2.166,
244.00,  2.320,
243.00,  2.474,
242.00,  2.643,
241.00,  2.748,
240.00,  2.884,
239.00,  3.008,
238.00,  3.111,
237.00,  3.164,
236.00,  3.248,
235.00,  3.267,
234.00,  3.377,
233.00,  3.319,
232.00,  3.347,
231.00,  3.337,
230.00,  3.316,
229.00,  3.359,
228.00,  3.509,
227.00,  3.430,
226.00,  3.425,
225.00,  3.567,
224.00,  3.543,
223.00,  3.567,
222.00,  3.378,
221.00,  3.406,
220.00,  3.396,
219.00,  3.391,
218.00,  3.332,
217.00,  3.260,
216.00,  3.284,
215.00,  3.270,
214.00,  3.356,
213.00,  3.203,
212.00,  3.216,
211.00,  3.141,
210.00,  3.235,
209.00,  3.098,
208.00,  3.185,
207.00,  3.082,
206.00,  3.187,
205.00,  3.318,
204.00,  3.067,
203.00,  3.083,
202.00,  3.101,
201.00,  2.876,
200.00,  2.899,
199.00,  2.884,
198.00,  2.902,
197.00,  2.791,
196.00,  2.806,
195.00,  2.728,
194.00,  2.648,
193.00,  2.497,
192.00,  2.500,
191.00,  2.330,
190.00,  2.316,
