11-20-2017,18:01:58
Wavenumber(cm-1),Intensity
 250 , 49173.9931236593 
 251 , 49215.0240575138 
 252 , 49255.6846271799 
 253 , 49293.3854586751 
 254 , 49328.0437812748 
 255 , 49359.9362691587 
 256 , 49391.314693235 
 257 , 49425.8998973586 
 258 , 49465.2305046679 
 259 , 49498.8639618809 
 260 , 49512.3857159144 
 261 , 49505.2849198724 
 262 , 49509.062219645 
 263 , 49558.5713032533 
 264 , 49659.7690314716 
 265 , 49788.0737994083 
 266 , 49918.0120211928 
 267 , 50028.7658166536 
 268 , 50101.7877868075 
 269 , 50130.5100165218 
 270 , 50148.0467131674 
 271 , 50195.1827303495 
 272 , 50284.8547496227 
 273 , 50389.4310028138 
 274 , 50480.3802050362 
 275 , 50557.4365469938 
 276 , 50639.301982263 
 277 , 50739.6401105819 
 278 , 50846.9517000623 
 279 , 50942.4431971057 
 280 , 51012.8331034164 
 281 , 51055.6517008875 
 282 , 51070.8006741372 
 283 , 51079.0474804874 
 284 , 51119.677614836 
 285 , 51222.4943934627 
 286 , 51352.6783431264 
 287 , 51450.0628239509 
 288 , 51479.8639052572 
 289 , 51473.030366761 
 290 , 51470.2739978859 
 291 , 51491.5536465306 
 292 , 51533.2772641539 
 293 , 51590.1571139853 
 294 , 51653.2982623729 
 295 , 51711.9803546821 
 296 , 51759.1525262325 
 297 , 51800.0035002547 
 298 , 51842.1641211832 
 299 , 51888.7240311056 
 300 , 51936.3767775517 
 301 , 51981.700862551 
 302 , 52025.3637039314 
 303 , 52070.5923168822 
 304 , 52119.5170226769 
 305 , 52169.5558509 
 306 , 52216.9585160333 
 307 , 52262.1370179582 
 308 , 52312.575503109 
 309 , 52375.8254240471 
 310 , 52450.5798892952 
 311 , 52528.9197525321 
 312 , 52604.0290349269 
 313 , 52675.4051500512 
 314 , 52744.532317809 
 315 , 52815.0438368179 
 316 , 52894.8520960105 
 317 , 52991.6748387357 
 318 , 53100.7345392357 
 319 , 53206.4974973051 
 320 , 53295.3253331306 
 321 , 53366.6873552001 
 322 , 53424.7937989412 
 323 , 53473.9413874789 
 324 , 53518.6080898123 
 325 , 53563.3768503149 
 326 , 53614.5473514423 
 327 , 53680.0700322879 
 328 , 53765.5704839762 
 329 , 53860.9507496939 
 330 , 53949.7770207045 
 331 , 54020.8769170959 
 332 , 54076.2647547297 
 333 , 54120.0297243113 
 334 , 54157.4927398768 
 335 , 54195.2570519044 
 336 , 54238.3769654852 
 337 , 54280.4053625088 
 338 , 54309.9005183517 
 339 , 54322.1752429766 
 340 , 54330.5946630447 
 341 , 54351.0587222913 
 342 , 54387.5537953377 
 343 , 54431.0475300822 
 344 , 54472.7303037371 
 345 , 54510.4100556617 
 346 , 54544.8935019131 
 347 , 54575.3465234385 
 348 , 54596.3856656824 
 349 , 54602.279465949 
 350 , 54599.2672535195 
 351 , 54606.8996646139 
 352 , 54643.1791747279 
 353 , 54709.1523939335 
 354 , 54798.1136674679 
 355 , 54900.6696815687 
 356 , 55000.1781063388 
 357 , 55079.4058901413 
 358 , 55138.5790932428 
 359 , 55197.0763743756 
 360 , 55272.2653734585 
 361 , 55359.5782302999 
 362 , 55444.6916802597 
 363 , 55521.0882475087 
 364 , 55602.946442017 
 365 , 55706.8969589801 
 366 , 55826.5040429797 
 367 , 55931.1294940284 
 368 , 55994.5498074332 
 369 , 56028.7046699212 
 370 , 56061.5227086308 
 371 , 56109.8178809258 
 372 , 56162.9858027947 
 373 , 56207.2044318723 
 374 , 56248.6523352589 
 375 , 56312.9702957925 
 376 , 56419.2965800096 
 377 , 56541.5179724179 
 378 , 56636.309843418 
 379 , 56678.2714778084 
 380 , 56681.7400879106 
 381 , 56666.4003334293 
 382 , 56652.3292714488 
 383 , 56659.9472872524 
 384 , 56704.6150200856 
 385 , 56774.3217869857 
 386 , 56847.9364097733 
 387 , 56912.9490422454 
 388 , 56973.5363361584 
 389 , 57035.3956231876 
 390 , 57098.52212276 
 391 , 57158.5639655555 
 392 , 57211.2913976033 
 393 , 57253.5279073207 
 394 , 57282.4609687759 
 395 , 57299.8283020757 
 396 , 57314.8369362114 
 397 , 57336.5113030744 
 398 , 57363.7369873809 
 399 , 57388.8816879999 
 400 , 57407.5893325872 
 401 , 57428.0472099146 
 402 , 57461.1212335199 
 403 , 57507.9557922483 
 404 , 57556.5258087525 
 405 , 57595.3936471684 
 406 , 57626.6524973686 
 407 , 57659.4725976522 
 408 , 57698.7349394007 
 409 , 57736.5938629458 
 410 , 57763.1800281847 
 411 , 57776.4348788488 
 412 , 57782.7904849549 
 413 , 57788.7273917062 
 414 , 57798.1983094999 
 415 , 57814.1094723874 
 416 , 57836.9073755542 
 417 , 57861.5137809559 
 418 , 57882.245422811 
 419 , 57896.0091777395 
 420 , 57901.9050700835 
 421 , 57900.7727689532 
 422 , 57901.6615038739 
 423 , 57916.0099716094 
 424 , 57945.3760733372 
 425 , 57974.5986856452 
 426 , 57988.3443935869 
 427 , 57987.7901232988 
 428 , 57984.6382406039 
 429 , 57987.4369411526 
 430 , 57993.040004693 
 431 , 57995.8464615193 
 432 , 57994.356045289 
 433 , 57992.1771966158 
 434 , 57992.6928661378 
 435 , 57995.1236479744 
 436 , 57996.7768463269 
 437 , 57996.2433729486 
 438 , 57995.2924392136 
 439 , 57996.0276387396 
 440 , 57997.8072170367 
 441 , 57997.5346981495 
 442 , 57993.0843259231 
 443 , 57987.692676052 
 444 , 57986.252984892 
 445 , 57990.6263853188 
 446 , 57997.5425383276 
 447 , 58003.3810999058 
 448 , 58006.1294834405 
 449 , 58004.7720991707 
 450 , 57999.0378937521 
 451 , 57991.0688809877 
 452 , 57983.4881016555 
 453 , 57978.4062111298 
 454 , 57977.345603278 
 455 , 57981.0750378657 
 456 , 57985.5460235109 
 457 , 57984.7577880345 
 458 , 57976.3220417531 
 459 , 57965.5304365894 
 460 , 57958.2828331269 
 461 , 57955.0174569071 
 462 , 57952.0254763996 
 463 , 57946.4290819551 
 464 , 57939.1579199992 
 465 , 57932.1032828194 
 466 , 57926.8148647918 
 467 , 57924.3792145078 
 468 , 57925.4601729981 
 469 , 57927.598098316 
 470 , 57926.8376743713 
 471 , 57921.0360358963 
 472 , 57912.5061926568 
 473 , 57904.1436280813 
 474 , 57897.3359542808 
 475 , 57892.1859381611 
 476 , 57888.3414790422 
 477 , 57883.5637241533 
 478 , 57875.1301910073 
 479 , 57863.1396123404 
 480 , 57851.84299045 
 481 , 57845.4847178345 
 482 , 57845.3613657333 
 483 , 57851.2493802034 
 484 , 57861.028217292 
 485 , 57867.7245402054 
 486 , 57864.0519354268 
 487 , 57851.1436942223 
 488 , 57837.5288115665 
 489 , 57830.1526255336 
 490 , 57827.4613089521 
 491 , 57825.4708847152 
 492 , 57821.6807042196 
 493 , 57815.7661649579 
 494 , 57807.7730963305 
 495 , 57799.4156914482 
 496 , 57793.2450901338 
 497 , 57790.7641034461 
 498 , 57790.8673754248 
 499 , 57792.014967865 
 500 , 57792.0180102541 
 501 , 57788.1475669826 
 502 , 57779.0845876977 
 503 , 57769.5995877577 
 504 , 57765.9560884927 
 505 , 57768.8950167015 
 506 , 57771.7441309601 
 507 , 57768.3323653604 
 508 , 57760.0834794615 
 509 , 57751.8345282605 
 510 , 57746.7929427836 
 511 , 57744.5942297385 
 512 , 57744.3869344186 
 513 , 57745.0609521609 
 514 , 57745.3188371277 
 515 , 57744.0842110943 
 516 , 57741.085996261 
 517 , 57736.2512131064 
 518 , 57730.0343842783 
 519 , 57723.4860948178 
 520 , 57717.6908437802 
 521 , 57713.744567727 
 522 , 57712.7247877391 
 523 , 57713.7837008443 
 524 , 57712.7062244702 
 525 , 57705.6001491839 
 526 , 57695.2248249723 
 527 , 57688.175992208 
 528 , 57688.3454225593 
 529 , 57692.1089259943 
 530 , 57694.6995989385 
 531 , 57693.7199149753 
 532 , 57688.8469355506 
 533 , 57680.5971725108 
 534 , 57672.8115143858 
 535 , 57670.1168234672 
 536 , 57672.7685612057 
 537 , 57675.3276821035 
 538 , 57672.9801021256 
 539 , 57667.7880350276 
 540 , 57664.6543447251 
 541 , 57664.6254719018 
 542 , 57661.2825345419 
 543 , 57648.4057961972 
 544 , 57631.394423963 
 545 , 57622.8634551229 
 546 , 57629.5504739915 
 547 , 57640.9368686317 
 548 , 57643.9465237551 
 549 , 57635.6772072834 
 550 , 57622.3580648936 
 551 , 57609.7759479669 
 552 , 57600.4009500958 
 553 , 57595.7435952925 
 554 , 57594.9873457083 
 555 , 57594.3506078163 
 556 , 57590.4543713656 
 557 , 57583.7665292142 
 558 , 57576.2855166716 
 559 , 57570.0601396944 
 560 , 57567.2227038365 
 561 , 57569.4863146049 
 562 , 57574.3821358959 
 563 , 57577.0836060452 
 564 , 57575.2821566627 
 565 , 57573.127529287 
 566 , 57575.3461446557 
 567 , 57580.0483311977 
 568 , 57580.1768621034 
 569 , 57571.4566672421 
 570 , 57560.1056381104 
 571 , 57554.4423212205 
 572 , 57556.2519634105 
 573 , 57560.4046625827 
 574 , 57562.30607771 
 575 , 57561.7520423547 
 576 , 57559.9127477645 
 577 , 57557.455166724 
 578 , 57554.3324686945 
 579 , 57550.652170601 
 580 , 57547.998400265 
 581 , 57548.5749757646 
 582 , 57552.6657825448 
 583 , 57556.9318014839 
 584 , 57557.9830483008 
 585 , 57555.9232829232 
 586 , 57552.8615471044 
 587 , 57550.2953062548 
 588 , 57548.1342895102 
 589 , 57546.1048587925 
 590 , 57544.7994033339 
 591 , 57545.4571358628 
 592 , 57548.6271718839 
 593 , 57552.5276238863 
 594 , 57554.9464356547 
 595 , 57554.7403292743 
 596 , 57551.7858228973 
 597 , 57546.5041125885 
 598 , 57541.5013433694 
 599 , 57539.8906753659 
 600 , 57541.9952607887 
 601 , 57544.7852744755 
 602 , 57545.533281453 
 603 , 57544.329061757 
 604 , 57542.2346344037 
 605 , 57539.68440236 
 606 , 57536.1716488319 
 607 , 57531.2843683103 
 608 , 57525.8543410852 
 609 , 57521.254770756 
 610 , 57518.2729106519 
 611 , 57516.6087548798 
 612 , 57515.843048736 
 613 , 57515.5405560959 
 614 , 57515.2572978578 
 615 , 57514.5326459495 
 616 , 57512.8684920414 
 617 , 57509.779649288 
 618 , 57504.996010586 
 619 , 57498.3895494115 
 620 , 57490.4833084398 
 621 , 57483.5827785272 
 622 , 57480.1161270732 
 623 , 57479.7476630984 
 624 , 57479.9841525521 
 625 , 57479.0482511336 
 626 , 57477.718951096 
 627 , 57477.2268616576 
 628 , 57477.3058064994 
 629 , 57476.3202322207 
 630 , 57473.2882526879 
 631 , 57469.9967173474 
 632 , 57468.8338243732 
 633 , 57470.1710297228 
 634 , 57472.2469961988 
 635 , 57473.3449824538 
 636 , 57472.4257909263 
 637 , 57468.7200220756 
 638 , 57463.9312184493 
 639 , 57462.7472607584 
 640 , 57468.5340192545 
 641 , 57476.6588419637 
 642 , 57479.9564023641 
 643 , 57476.5528330483 
 644 , 57471.7735756173 
 645 , 57470.4404874997 
 646 , 57471.1773696504 
 647 , 57470.320768259 
 648 , 57466.6808224949 
 649 , 57462.8193985232 
 650 , 57461.2248036783 
 651 , 57461.7397346412 
 652 , 57463.1025435121 
 653 , 57464.3880955466 
 654 , 57465.2378102955 
 655 , 57465.4118310547 
 656 , 57465.1659667393 
 657 , 57464.9751743089 
 658 , 57464.4840058807 
 659 , 57461.8336411077 
 660 , 57455.5776288746 
 661 , 57449.0266874748 
 662 , 57447.8198505494 
 663 , 57453.329886315 
 664 , 57458.6289998685 
 665 , 57456.8343132987 
 666 , 57450.0283981164 
 667 , 57445.0185776985 
 668 , 57445.6636237323 
 669 , 57449.6889507376 
 670 , 57454.1888961439 
 671 , 57457.4139332814 
 672 , 57458.2604661374 
 673 , 57456.2324429593 
 674 , 57452.1190723744 
 675 , 57446.9057926342 
 676 , 57441.8833024553 
 677 , 57438.516162642 
 678 , 57437.9022980581 
 679 , 57440.3272900649 
 680 , 57445.693879522 
 681 , 57451.0825420605 
 682 , 57451.9276497771 
 683 , 57446.551821956 
 684 , 57439.7857666637 
 685 , 57436.8684318039 
 686 , 57438.1054072175 
 687 , 57440.8796819883 
 688 , 57442.901127941 
 689 , 57442.6976061189 
 690 , 57439.2001266286 
 691 , 57434.3511678834 
 692 , 57431.8595436637 
 693 , 57433.6283448983 
 694 , 57437.516659142 
 695 , 57440.8887079416 
 696 , 57441.5797066281 
 697 , 57437.7097394722 
 698 , 57429.6555671161 
 699 , 57422.6467635874 
 700 , 57421.923509623 
 701 , 57426.7408871938 
 702 , 57433.0074370459 
 703 , 57437.3547232432 
 704 , 57437.9862473239 
 705 , 57433.7034383182 
 706 , 57426.9826070103 
 707 , 57422.2489275706 
 708 , 57421.9298095735 
 709 , 57424.4994813521 
 710 , 57427.9739842293 
 711 , 57430.3799097542 
 712 , 57429.7707051388 
 713 , 57426.3370501895 
 714 , 57424.1890994823 
 715 , 57426.9868255214 
 716 , 57431.6431093192 
 717 , 57431.9811674713 
 718 , 57426.7233621122 
 719 , 57422.9196933799 
 720 , 57426.9448292907 
 721 , 57434.8004800267 
 722 , 57438.144206694 
 723 , 57433.9548727615 
 724 , 57427.4568070083 
 725 , 57423.8212091119 
 726 , 57423.4832254373 
 727 , 57425.0455207502 
 728 , 57426.6823164257 
 729 , 57425.9769003662 
 730 , 57421.3840297872 
 731 , 57416.3790891387 
 732 , 57416.0051620542 
 733 , 57420.2272480621 
 734 , 57422.7179954606 
 735 , 57418.586417256 
 736 , 57411.6426163671 
 737 , 57408.1052785688 
 738 , 57409.3859058823 
 739 , 57411.65909494 
 740 , 57411.9009508931 
 741 , 57411.4329793576 
 742 , 57412.5437748223 
 743 , 57414.598943879 
 744 , 57414.1992812833 
 745 , 57409.3974102179 
 746 , 57403.6171777533 
 747 , 57401.173299553 
 748 , 57402.1050504367 
 749 , 57402.9873480978 
 750 , 57401.9085116105 
 751 , 57401.5900414134 
 752 , 57405.2137832973 
 753 , 57411.337718386 
 754 , 57415.3605655469 
 755 , 57414.7513501718 
 756 , 57412.0391561805 
 757 , 57410.2435263988 
 758 , 57409.9788558145 
 759 , 57410.4894397621 
 760 , 57410.936731294 
 761 , 57410.3519056483 
 762 , 57407.9084824053 
 763 , 57403.9931720518 
 764 , 57399.5589214032 
 765 , 57395.6980760651 
 766 , 57393.7186191117 
 767 , 57394.6793497286 
 768 , 57398.0261537601 
 769 , 57402.6005486692 
 770 , 57407.0786875559 
 771 , 57409.9269632075 
 772 , 57410.2125649948 
 773 , 57409.8662124633 
 774 , 57411.5311323312 
 775 , 57414.9704669608 
 776 , 57417.0124603366 
 777 , 57415.4287872798 
 778 , 57411.8341163082 
 779 , 57408.62973375 
 780 , 57407.0755022592 
 781 , 57407.5135129388 
 782 , 57409.8074798695 
 783 , 57412.5927155627 
 784 , 57414.3302168033 
 785 , 57413.8378591509 
 786 , 57410.1687195322 
 787 , 57404.2952999886 
 788 , 57401.1297046208 
 789 , 57405.0751809823 
 790 , 57412.7093415885 
 791 , 57416.9680615537 
 792 , 57414.6279045845 
 793 , 57408.4661547217 
 794 , 57401.5511689714 
 795 , 57395.6713329225 
 796 , 57392.1662154188 
 797 , 57392.3753009626 
 798 , 57397.6385407118 
 799 , 57407.5635848701 
 800 , 57414.754209463 
 801 , 57410.6504224306 
 802 , 57397.6666947243 
 803 , 57387.7561021252 
 804 , 57388.487072476 
 805 , 57393.9284127838 
 806 , 57396.3508490192 
 807 , 57394.9883510739 
 808 , 57393.5000057904 
 809 , 57393.9330051471 
 810 , 57394.8996152917 
 811 , 57394.8736550364 
 812 , 57394.440962992 
 813 , 57395.1204025903 
 814 , 57396.9337971791 
 815 , 57397.718340037 
 816 , 57395.7550644501 
 817 , 57392.4447746529 
 818 , 57390.130317331 
 819 , 57390.0955179762 
 820 , 57392.5287291173 
 821 , 57396.8325418146 
 822 , 57399.9073998241 
 823 , 57398.4710626819 
 824 , 57394.0347286248 
 825 , 57391.5797625769 
 826 , 57393.4636905133 
 827 , 57395.8661544392 
 828 , 57394.7487626043 
 829 , 57391.4424308796 
 830 , 57389.9117344192 
 831 , 57391.5719677624 
 832 , 57393.8577838659 
 833 , 57394.384676036 
 834 , 57393.543533773 
 835 , 57392.5982522691 
 836 , 57391.7049634303 
 837 , 57389.8535338331 
 838 , 57386.9041684646 
 839 , 57385.8518529655 
 840 , 57389.9544013504 
 841 , 57397.1873963777 
 842 , 57401.8082183154 
 843 , 57401.0239478508 
 844 , 57398.6121597366 
 845 , 57398.5173648966 
 846 , 57399.3693188316 
 847 , 57397.4178863749 
 848 , 57392.5249110747 
 849 , 57389.6618904473 
 850 , 57392.6017368171 
 851 , 57397.7663707734 
 852 , 57399.7029539288 
 853 , 57398.0396364781 
 854 , 57397.0642191307 
 855 , 57399.3328011435 
 856 , 57402.0132534073 
 857 , 57401.692030528 
 858 , 57398.6994773485 
 859 , 57395.5543406395 
 860 , 57393.9656107024 
 861 , 57394.1751947415 
 862 , 57395.9863040597 
 863 , 57397.5074810922 
 864 , 57396.3274436819 
 865 , 57392.5829442835 
 866 , 57389.2110216394 
 867 , 57388.6161746208 
 868 , 57390.9006050489 
 869 , 57395.4979329517 
 870 , 57399.5882137834 
 871 , 57398.8352748328 
 872 , 57392.339961011 
 873 , 57386.1826098083 
 874 , 57386.1656684428 
 875 , 57390.6079131956 
 876 , 57394.8078958237 
 877 , 57396.0260443238 
 878 , 57393.9210607285 
 879 , 57389.1885716085 
 880 , 57385.8765250981 
 881 , 57388.3308671384 
 882 , 57394.0679140962 
 883 , 57395.6139626087 
 884 , 57389.9595615767 
 885 , 57383.8663772627 
 886 , 57384.0372346144 
 887 , 57387.9298403729 
 888 , 57389.1821405028 
 889 , 57386.6485081777 
 890 , 57385.698399578 
 891 , 57389.9115276686 
 892 , 57394.5347674269 
 893 , 57393.3727494048 
 894 , 57387.5685203201 
 895 , 57383.5934446064 
 896 , 57385.2150379725 
 897 , 57390.3241988451 
 898 , 57396.3042206119 
 899 , 57402.050273539 
 900 , 57407.0710649228 
 901 , 57410.6195381097 
 902 , 57411.6450079438 
 903 , 57409.5180975934 
 904 , 57405.143593728 
 905 , 57399.7813983786 
 906 , 57394.9348901847 
 907 , 57392.2603153327 
 908 , 57392.3983062422 
 909 , 57394.0863087237 
 910 , 57396.01417436 
 911 , 57397.810176323 
 912 , 57399.4163280623 
 913 , 57400.1561098128 
 914 , 57398.7155241709 
 915 , 57395.0895021208 
 916 , 57393.2278920899 
 917 , 57397.1151001844 
 918 , 57403.9915714441 
 919 , 57407.368890357 
 920 , 57405.0869817722 
 921 , 57401.7671987977 
 922 , 57401.6976662501 
 923 , 57404.9067881596 
 924 , 57410.1083795126 
 925 , 57414.6743997886 
 926 , 57414.8675749192 
 927 , 57409.7632255704 
 928 , 57404.9953737432 
 929 , 57406.1045127021 
 930 , 57411.3628063351 
 931 , 57415.9407326664 
 932 , 57417.2687986746 
 933 , 57415.4952573954 
 934 , 57411.3536928967 
 935 , 57407.0220932873 
 936 , 57404.8418957779 
 937 , 57405.5702131623 
 938 , 57408.9569250753 
 939 , 57413.296554511 
 940 , 57414.4754359819 
 941 , 57409.5996729467 
 942 , 57402.887215931 
 943 , 57400.3990644614 
 944 , 57402.2872636503 
 945 , 57403.6618620015 
 946 , 57401.9974378882 
 947 , 57400.5801263756 
 948 , 57402.6863995874 
 949 , 57405.8764054636 
 950 , 57405.4513541196 
 951 , 57401.5362797148 
 952 , 57399.743163558 
 953 , 57403.370120299 
 954 , 57407.585936976 
 955 , 57406.7185101561 
 956 , 57402.2416778824 
 957 , 57399.5714244424 
 958 , 57400.364005424 
 959 , 57400.6826882316 
 960 , 57397.762348694 
 961 , 57395.5201945022 
 962 , 57399.0736338999 
 963 , 57406.4854952605 
 964 , 57410.7997705612 
 965 , 57408.8907141722 
 966 , 57404.9625752634 
 967 , 57403.0432941805 
 968 , 57401.9765043961 
 969 , 57399.090769015 
 970 , 57395.4641088615 
 971 , 57395.484968493 
 972 , 57401.2590809223 
 973 , 57409.37434951 
 974 , 57415.9595588047 
 975 , 57419.2399602691 
 976 , 57418.3571613949 
 977 , 57413.9645218929 
 978 , 57408.3179106767 
 979 , 57403.6000407574 
 980 , 57401.5747605107 
 981 , 57403.5102707305 
 982 , 57407.2219252277 
 983 , 57408.9162861302 
 984 , 57407.4232536524 
 985 , 57404.8385646563 
 986 , 57402.9171162963 
 987 , 57401.6329580596 
 988 , 57400.6222114543 
 989 , 57399.7723704492 
 990 , 57399.1182233488 
 991 , 57398.9733720793 
 992 , 57400.0419675516 
 993 , 57402.4268061172 
 994 , 57403.8694930391 
 995 , 57401.9261773854 
 996 , 57398.2756847307 
 997 , 57397.1405322224 
 998 , 57399.7574049758 
 999 , 57402.6468941183 
 1000 , 57402.6777703798 
 1001 , 57399.8604809213 
 1002 , 57395.1004524083 
 1003 , 57390.3087366315 
 1004 , 57388.0563429553 
 1005 , 57388.9001033973 
 1006 , 57389.9959416298 
 1007 , 57388.9852283955 
 1008 , 57387.1236963371 
 1009 , 57386.6292129747 
 1010 , 57389.10706671 
 1011 , 57395.6978186199 
 1012 , 57405.5518792652 
 1013 , 57414.3427514607 
 1014 , 57418.307413868 
 1015 , 57417.9349106585 
 1016 , 57415.0018696891 
 1017 , 57412.0535328819 
 1018 , 57412.1746730029 
 1019 , 57415.8044203691 
 1020 , 57418.632444482 
 1021 , 57417.210144421 
 1022 , 57414.4279617735 
 1023 , 57414.6871603197 
 1024 , 57417.5586250499 
 1025 , 57419.0724411483 
 1026 , 57417.6399075975 
 1027 , 57416.025398842 
 1028 , 57416.5042889611 
 1029 , 57417.0803354699 
 1030 , 57414.8499917578 
 1031 , 57411.1417924193 
 1032 , 57410.282309789 
 1033 , 57413.7217357586 
 1034 , 57417.9151955682 
 1035 , 57419.6612602789 
 1036 , 57419.3469816683 
 1037 , 57418.2633428283 
 1038 , 57416.8589100917 
 1039 , 57415.0258502998 
 1040 , 57413.55395889 
 1041 , 57414.6743217302 
 1042 , 57419.5401408271 
 1043 , 57424.5099537948 
 1044 , 57425.17410201 
 1045 , 57421.8048825514 
 1046 , 57417.5732866289 
 1047 , 57415.0972496543 
 1048 , 57416.1333850424 
 1049 , 57421.1410467855 
