11-20-2017,19:36:57
Wavenumber(cm-1),Intensity
 250 , 17935.7219057548 
 251 , 17952.0356019365 
 252 , 17962.7265367818 
 253 , 17966.957081037 
 254 , 17966.8577075121 
 255 , 17964.9061534999 
 256 , 17964.8049113477 
 257 , 17971.1674437317 
 258 , 17987.3416558123 
 259 , 18009.7195048955 
 260 , 18032.3651437383 
 261 , 18052.0741826871 
 262 , 18071.9337238129 
 263 , 18095.7819895522 
 264 , 18124.1231560118 
 265 , 18153.9379446817 
 266 , 18182.2830655244 
 267 , 18208.2093873119 
 268 , 18231.7393357896 
 269 , 18253.4094213593 
 270 , 18275.439616854 
 271 , 18300.3683124506 
 272 , 18329.1951562455 
 273 , 18360.6781992701 
 274 , 18393.3228095394 
 275 , 18424.7054551115 
 276 , 18451.7792586465 
 277 , 18472.5952600143 
 278 , 18490.3847583364 
 279 , 18509.8729046406 
 280 , 18533.668917291 
 281 , 18560.2319583036 
 282 , 18587.614227738 
 283 , 18615.281893887 
 284 , 18643.9559991024 
 285 , 18673.9779418599 
 286 , 18702.9880231523 
 287 , 18727.56820909 
 288 , 18745.8787771101 
 289 , 18760.1641109743 
 290 , 18773.2662130251 
 291 , 18786.4753713803 
 292 , 18799.3209545807 
 293 , 18811.0624098706 
 294 , 18819.4689325459 
 295 , 18821.5558831693 
 296 , 18817.3893571649 
 297 , 18817.1914647822 
 298 , 18833.0659905607 
 299 , 18866.5526800841 
 300 , 18904.3122696079 
 301 , 18932.9010368318 
 302 , 18950.2083932272 
 303 , 18961.2181148191 
 304 , 18970.7073002986 
 305 , 18982.1441652759 
 306 , 18998.6467936625 
 307 , 19022.4928647011 
 308 , 19054.5321262771 
 309 , 19095.1581193694 
 310 , 19140.2274882175 
 311 , 19182.2103392034 
 312 , 19215.2198032603 
 313 , 19241.996689292 
 314 , 19267.9575135445 
 315 , 19296.2249831883 
 316 , 19325.3513625242 
 317 , 19353.3266020714 
 318 , 19377.7672583896 
 319 , 19395.9684631432 
 320 , 19406.5662995487 
 321 , 19416.082025838 
 322 , 19433.8710630889 
 323 , 19465.2814967214 
 324 , 19506.5722955548 
 325 , 19552.7033467542 
 326 , 19597.6186201671 
 327 , 19634.2852142865 
 328 , 19657.3962119724 
 329 , 19673.2518089346 
 330 , 19692.8245753666 
 331 , 19721.4147835549 
 332 , 19750.1212870092 
 333 , 19768.2940975456 
 334 , 19775.9810612099 
 335 , 19784.3674461833 
 336 , 19803.3714958411 
 337 , 19830.1355436791 
 338 , 19856.2461954779 
 339 , 19876.4883884976 
 340 , 19894.2299827 
 341 , 19914.0909551482 
 342 , 19936.3008257206 
 343 , 19956.291378057 
 344 , 19969.6691236699 
 345 , 19975.1733536034 
 346 , 19972.9678357952 
 347 , 19965.8124105158 
 348 , 19963.5804187015 
 349 , 19976.9842785945 
 350 , 20006.2965344896 
 351 , 20040.1807772568 
 352 , 20067.8691305752 
 353 , 20087.4741979249 
 354 , 20101.1669502883 
 355 , 20111.2978502369 
 356 , 20120.6516211174 
 357 , 20132.0906052985 
 358 , 20148.5857259146 
 359 , 20173.2270189066 
 360 , 20208.3682751386 
 361 , 20250.9160337819 
 362 , 20295.3545964973 
 363 , 20338.2773811724 
 364 , 20381.8672578355 
 365 , 20428.9923811538 
 366 , 20476.8693156211 
 367 , 20516.7847017831 
 368 , 20541.6005361255 
 369 , 20556.9177814194 
 370 , 20573.6705932591 
 371 , 20597.7322961373 
 372 , 20622.5082748364 
 373 , 20639.9422507873 
 374 , 20651.1057298159 
 375 , 20665.9522925372 
 376 , 20693.1566795419 
 377 , 20731.1991693046 
 378 , 20774.6617094104 
 379 , 20817.903000263 
 380 , 20854.8050745253 
 381 , 20879.7002607493 
 382 , 20896.3255849854 
 383 , 20916.6467160298 
 384 , 20949.9057816341 
 385 , 20989.1466549244 
 386 , 21022.0443982549 
 387 , 21044.7925330586 
 388 , 21070.0667610223 
 389 , 21111.3184590051 
 390 , 21165.6550404588 
 391 , 21217.723859067 
 392 , 21254.8703772496 
 393 , 21278.141232998 
 394 , 21292.4861389797 
 395 , 21303.4814333017 
 396 , 21317.7316318456 
 397 , 21341.3842858836 
 398 , 21374.195489167 
 399 , 21411.812487394 
 400 , 21450.700579562 
 401 , 21490.6088956874 
 402 , 21532.0078656496 
 403 , 21573.6804832879 
 404 , 21612.1238220142 
 405 , 21644.2518811299 
 406 , 21672.1233539418 
 407 , 21700.4882033694 
 408 , 21732.9626671157 
 409 , 21769.7780804826 
 410 , 21810.5164229648 
 411 , 21853.8523754095 
 412 , 21897.4743496908 
 413 , 21939.2272892171 
 414 , 21978.3325598023 
 415 , 22014.5715185646 
 416 , 22046.9055755103 
 417 , 22072.4483250446 
 418 , 22088.2935097098 
 419 , 22095.5669113183 
 420 , 22098.8083547627 
 421 , 22102.3794692672 
 422 , 22109.2364111302 
 423 , 22121.8892439661 
 424 , 22141.691310813 
 425 , 22168.0390227692 
 426 , 22199.9079078506 
 427 , 22233.6222355569 
 428 , 22263.8161842887 
 429 , 22287.0956808928 
 430 , 22307.0995309947 
 431 , 22328.9176108199 
 432 , 22354.2807567639 
 433 , 22380.7350718654 
 434 , 22405.977764392 
 435 , 22430.8593359083 
 436 , 22457.6774369098 
 437 , 22486.965036259 
 438 , 22514.9011000138 
 439 , 22537.2523123289 
 440 , 22554.4143263714 
 441 , 22570.9217347632 
 442 , 22590.6810478907 
 443 , 22613.673449438 
 444 , 22638.6212296482 
 445 , 22662.9120145157 
 446 , 22681.6759874365 
 447 , 22690.8464868934 
 448 , 22697.6118104688 
 449 , 22716.1372537285 
 450 , 22754.6743779836 
 451 , 22801.5723337478 
 452 , 22841.3891932188 
 453 , 22868.1819527384 
 454 , 22886.9131719094 
 455 , 22902.4928497565 
 456 , 22915.4681223436 
 457 , 22924.6269652937 
 458 , 22933.5599283493 
 459 , 22956.0622147428 
 460 , 23005.8281067441 
 461 , 23075.9693679668 
 462 , 23143.9693139687 
 463 , 23191.1352000011 
 464 , 23215.9432732555 
 465 , 23221.3605977604 
 466 , 23215.4372122881 
 467 , 23213.114756086 
 468 , 23227.2086750572 
 469 , 23249.560202646 
 470 , 23261.9656688098 
 471 , 23257.9100697664 
 472 , 23259.6209641548 
 473 , 23291.9320433222 
 474 , 23349.7804752567 
 475 , 23402.6288372049 
 476 , 23426.1828945675 
 477 , 23428.3311943782 
 478 , 23426.012505226 
 479 , 23429.9984649185 
 480 , 23441.9830582791 
 481 , 23462.5098952667 
 482 , 23488.4439217304 
 483 , 23514.7633105029 
 484 , 23538.6957794577 
 485 , 23563.3018996074 
 486 , 23592.3421943355 
 487 , 23625.4148058178 
 488 , 23658.4617221333 
 489 , 23688.9446578511 
 490 , 23721.9394408223 
 491 , 23764.5318746486 
 492 , 23813.799745247 
 493 , 23852.1411789995 
 494 , 23863.875177007 
 495 , 23859.5023377158 
 496 , 23862.6753390616 
 497 , 23886.9619570311 
 498 , 23920.7434800676 
 499 , 23949.2919615304 
 500 , 23969.9642229116 
 501 , 23990.1744697959 
 502 , 24015.8769872133 
 503 , 24045.4852753687 
 504 , 24075.4088769249 
 505 , 24102.3962280501 
 506 , 24123.6506979566 
 507 , 24136.6431337807 
 508 , 24140.595849823 
 509 , 24135.5283681415 
 510 , 24122.9689621612 
 511 , 24107.7114069991 
 512 , 24095.24274144 
 513 , 24094.6791726397 
 514 , 24117.7653728818 
 515 , 24169.845717561 
 516 , 24233.1730336557 
 517 , 24285.3589210554 
 518 , 24318.993511238 
 519 , 24343.5922487956 
 520 , 24368.5244397426 
 521 , 24396.9099311463 
 522 , 24429.5294888674 
 523 , 24463.3129440218 
 524 , 24488.4612146209 
 525 , 24495.7970076889 
 526 , 24489.1998769123 
 527 , 24480.0860320838 
 528 , 24478.5236921941 
 529 , 24490.6481368418 
 530 , 24521.2986228318 
 531 , 24563.7711047789 
 532 , 24601.2544108164 
 533 , 24621.3324854229 
 534 , 24632.0565122037 
 535 , 24646.7489409889 
 536 , 24668.7283382701 
 537 , 24688.2814079453 
 538 , 24697.3944366718 
 539 , 24705.6291745862 
 540 , 24729.8005044013 
 541 , 24775.9867082874 
 542 , 24829.4862391099 
 543 , 24874.6353221312 
 544 , 24911.343913365 
 545 , 24949.1960618588 
 546 , 24992.0220065586 
 547 , 25026.6456400313 
 548 , 25038.1772336013 
 549 , 25037.145090158 
 550 , 25056.890989335 
 551 , 25121.2604629099 
 552 , 25209.4960938332 
 553 , 25289.2892391734 
 554 , 25347.415135081 
 555 , 25394.9654009543 
 556 , 25442.2238533459 
 557 , 25484.0483737699 
 558 , 25509.2499755923 
 559 , 25514.8446411698 
 560 , 25512.6231142342 
 561 , 25514.965678638 
 562 , 25524.9411800675 
 563 , 25540.3499934249 
 564 , 25556.829923051 
 565 , 25564.6817869095 
 566 , 25554.3858569617 
 567 , 25531.923769407 
 568 , 25515.3847141403 
 569 , 25518.3182204831 
 570 , 25536.8013687256 
 571 , 25563.0914253891 
 572 , 25592.1056145304 
 573 , 25621.5765832612 
 574 , 25649.9389116037 
 575 , 25678.4935071506 
 576 , 25709.3538198453 
 577 , 25740.2648769697 
 578 , 25762.7811771588 
 579 , 25770.2089652776 
 580 , 25771.5860072178 
 581 , 25782.6432712686 
 582 , 25808.5726338285 
 583 , 25834.6542443106 
 584 , 25845.5293168393 
 585 , 25841.4613939513 
 586 , 25831.6847580374 
 587 , 25824.2427135534 
 588 , 25823.9357957185 
 589 , 25834.5157833571 
 590 , 25851.8556304958 
 591 , 25865.9431200363 
 592 , 25870.3470505468 
 593 , 25870.9328278085 
 594 , 25875.8437483966 
 595 , 25887.7680737857 
 596 , 25904.1890352387 
 597 , 25922.6257984034 
 598 , 25941.653585749 
 599 , 25960.1438304298 
 600 , 25977.2995226254 
 601 , 25992.7221036804 
 602 , 26005.8480936683 
 603 , 26015.054093922 
 604 , 26018.4790955948 
 605 , 26021.5136987653 
 606 , 26040.4052543456 
 607 , 26089.0948862305 
 608 , 26158.3941139016 
 609 , 26228.9918719694 
 610 , 26286.956245909 
 611 , 26328.3778148082 
 612 , 26351.8161844942 
 613 , 26368.6907292317 
 614 , 26397.354432191 
 615 , 26446.5699566312 
 616 , 26503.2417563003 
 617 , 26552.4128365648 
 618 , 26592.7415370777 
 619 , 26631.8196043499 
 620 , 26676.0528058834 
 621 , 26728.1593584777 
 622 , 26789.6692342888 
 623 , 26853.5481999028 
 624 , 26906.0773070925 
 625 , 26939.1781808102 
 626 , 26964.0088990197 
 627 , 26994.5681373793 
 628 , 27022.6033812361 
 629 , 27019.5049781133 
 630 , 26968.5377561816 
 631 , 26902.6086716338 
 632 , 26865.6523159449 
 633 , 26871.7085095155 
 634 , 26903.2020440139 
 635 , 26942.9358925625 
 636 , 26982.4521060536 
 637 , 27015.8126820732 
 638 , 27037.1709121596 
 639 , 27040.7899814988 
 640 , 27024.9151009583 
 641 , 27008.9891290725 
 642 , 27019.0005165301 
 643 , 27059.7221163112 
 644 , 27107.0650860448 
 645 , 27139.0083835962 
 646 , 27158.6765486905 
 647 , 27178.5311712807 
 648 , 27204.2476153246 
 649 , 27231.2001238993 
 650 , 27253.7317611827 
 651 , 27265.0003813387 
 652 , 27257.7961871928 
 653 , 27234.3827508469 
 654 , 27212.7986262137 
 655 , 27210.327778952 
 656 , 27227.1468771809 
 657 , 27255.5546448537 
 658 , 27286.769692323 
 659 , 27310.1331983938 
 660 , 27316.6376081363 
 661 , 27312.6919268285 
 662 , 27312.3151498301 
 663 , 27323.457117448 
 664 , 27342.199016211 
 665 , 27363.5277253503 
 666 , 27384.8213405259 
 667 , 27404.7353487152 
 668 , 27423.6945362825 
 669 , 27445.7272525807 
 670 , 27474.6856646193 
 671 , 27508.5106702348 
 672 , 27541.8763928176 
 673 , 27572.6782015301 
 674 , 27605.7796664335 
 675 , 27645.7464553046 
 676 , 27685.180091147 
 677 , 27709.8329071513 
 678 , 27712.8232958651 
 679 , 27703.6790474087 
 680 , 27694.6089128836 
 681 , 27702.8877607539 
 682 , 27748.6814467844 
 683 , 27833.2750163189 
 684 , 27915.6347355161 
 685 , 27953.5066297939 
 686 , 27951.615062535 
 687 , 27942.4775717818 
 688 , 27947.3978983798 
 689 , 27961.7464110066 
 690 , 27977.5518729361 
 691 , 27988.7284743135 
 692 , 27990.3253344265 
 693 , 27982.1808696012 
 694 , 27974.6933618508 
 695 , 27978.7648795407 
 696 , 27996.1321142126 
 697 , 28023.236719416 
 698 , 28057.677798857 
 699 , 28099.686149701 
 700 , 28148.5958539983 
 701 , 28191.7799869679 
 702 , 28209.9957439927 
 703 , 28196.5228373674 
 704 , 28170.6984502586 
 705 , 28153.2045353161 
 706 , 28147.5472401903 
 707 , 28148.0614975764 
 708 , 28150.5871129694 
 709 , 28154.0842641582 
 710 , 28157.8529455348 
 711 , 28160.9997663014 
 712 , 28162.5539544672 
 713 , 28163.5267994532 
 714 , 28168.5659247998 
 715 , 28181.6712667393 
 716 , 28198.7987967854 
 717 , 28212.1958619993 
 718 , 28218.0144027551 
 719 , 28219.0554016701 
 720 , 28218.917948633 
 721 , 28222.2849334487 
 722 , 28234.2477280295 
 723 , 28256.6423205169 
 724 , 28286.2734983257 
 725 , 28319.5864342182 
 726 , 28353.470240939 
 727 , 28384.9960312821 
 728 , 28411.7417654351 
 729 , 28431.9902771682 
 730 , 28445.0852603439 
 731 , 28455.9041511219 
 732 , 28471.0185136524 
 733 , 28490.2193383306 
 734 , 28504.8960985214 
 735 , 28509.0201523001 
 736 , 28511.3423032991 
 737 , 28524.6576255335 
 738 , 28552.3314085704 
 739 , 28587.4563364025 
 740 , 28622.616368739 
 741 , 28650.4353073666 
 742 , 28663.8920116296 
 743 , 28663.1577062734 
 744 , 28655.2072480763 
 745 , 28647.8265564022 
 746 , 28650.6741219742 
 747 , 28672.8273720413 
 748 , 28707.4326642503 
 749 , 28734.732335398 
 750 , 28745.3288763477 
 751 , 28760.6470598963 
 752 , 28804.6032447687 
 753 , 28863.1465101134 
 754 , 28896.291795166 
 755 , 28883.0699529247 
 756 , 28848.84627379 
 757 , 28823.6853154645 
 758 , 28817.6815746905 
 759 , 28829.5535589439 
 760 , 28857.3338359843 
 761 , 28897.9769744229 
 762 , 28946.7033459298 
 763 , 28986.3189118454 
 764 , 28994.1434389657 
 765 , 28965.624587405 
 766 , 28924.9463163474 
 767 , 28896.4155472233 
 768 , 28889.7945675082 
 769 , 28909.0989096887 
 770 , 28945.7612415737 
 771 , 28975.1671342825 
 772 , 28977.590813608 
 773 , 28960.9552201324 
 774 , 28940.9494678123 
 775 , 28926.5540195873 
 776 , 28919.9121355287 
 777 , 28921.8754362859 
 778 , 28929.7785055111 
 779 , 28940.3930056083 
 780 , 28954.0423922338 
 781 , 28973.8980290036 
 782 , 28999.5442015019 
 783 , 29020.6074945265 
 784 , 29026.048840854 
 785 , 29016.0159986171 
 786 , 28997.642856447 
 787 , 28980.2285433709 
 788 , 28977.306848344 
 789 , 29000.5667408711 
 790 , 29043.0627995144 
 791 , 29089.2066309364 
 792 , 29134.2893024859 
 793 , 29190.5844789907 
 794 , 29266.765895167 
 795 , 29342.9052990175 
 796 , 29389.6743004365 
 797 , 29397.2168835467 
 798 , 29378.4311787625 
 799 , 29348.1062495431 
 800 , 29323.4670037866 
 801 , 29321.2458115307 
 802 , 29338.1099698853 
 803 , 29353.2855770074 
 804 , 29352.6778802461 
 805 , 29343.0346682483 
 806 , 29334.8909166459 
 807 , 29339.5874074367 
 808 , 29368.8881171928 
 809 , 29421.425062067 
 810 , 29469.0176223864 
 811 , 29484.8276142708 
 812 , 29476.7587098753 
 813 , 29468.2876987665 
 814 , 29469.7194466046 
 815 , 29472.0825848018 
 816 , 29467.6276914453 
 817 , 29462.4863428786 
 818 , 29466.7211850004 
 819 , 29479.3172456377 
 820 , 29487.8045872224 
 821 , 29483.2968358152 
 822 , 29470.9020723425 
 823 , 29458.3809934262 
 824 , 29449.0765893631 
 825 , 29443.1201492619 
 826 , 29439.8449433444 
 827 , 29436.9247262529 
 828 , 29432.1595989883 
 829 , 29426.3397660281 
 830 , 29421.7479546909 
 831 , 29420.7981750827 
 832 , 29426.0909351119 
 833 , 29439.0476890178 
 834 , 29454.7494525192 
 835 , 29466.3086557168 
 836 , 29470.0204012485 
 837 , 29465.5307031611 
 838 , 29453.492844108 
 839 , 29437.4307756106 
 840 , 29421.3056365992 
 841 , 29406.8363809345 
 842 , 29394.1690049772 
 843 , 29385.700591457 
 844 , 29388.7847163586 
 845 , 29409.1573861936 
 846 , 29435.1919752822 
 847 , 29447.5120916291 
 848 , 29439.7188613732 
 849 , 29423.7658366628 
 850 , 29411.3623266603 
 851 , 29406.6654576587 
 852 , 29411.6440587869 
 853 , 29428.2970351341 
 854 , 29458.6428778097 
 855 , 29497.54629503 
 856 , 29519.6280838465 
 857 , 29500.0800869693 
 858 , 29456.4316561397 
 859 , 29430.8128610769 
 860 , 29443.6592863397 
 861 , 29476.8607318609 
 862 , 29510.6703325486 
 863 , 29538.5061661227 
 864 , 29558.6464102006 
 865 , 29572.1092573645 
 866 , 29582.9159893567 
 867 , 29594.2805084962 
 868 , 29606.1429224853 
 869 , 29617.7866656457 
 870 , 29628.9956529224 
 871 , 29639.9532583936 
 872 , 29658.7518083485 
 873 , 29709.392239308 
 874 , 29811.3433234878 
 875 , 29940.8541955792 
 876 , 30057.1288060329 
 877 , 30144.0856711807 
 878 , 30215.7763201807 
 879 , 30284.0262455519 
 880 , 30345.4527044549 
 881 , 30393.2693648324 
 882 , 30423.0402236859 
 883 , 30432.09108638 
 884 , 30423.9798639481 
 885 , 30415.4749135086 
 886 , 30420.1877863409 
 887 , 30417.5833514466 
 888 , 30373.2586971265 
 889 , 30280.594879096 
 890 , 30167.6429450073 
 891 , 30060.3353540195 
 892 , 29968.3365089861 
 893 , 29896.6382861813 
 894 , 29838.951061162 
 895 , 29780.8227893558 
 896 , 29716.5030529877 
 897 , 29658.7302778937 
 898 , 29620.4726879469 
 899 , 29600.7718338679 
 900 , 29592.9826571972 
 901 , 29591.7121721203 
 902 , 29593.0637236264 
 903 , 29593.5722782455 
 904 , 29590.9814423571 
 905 , 29583.469947238 
 906 , 29571.3005175982 
 907 , 29556.1404831892 
 908 , 29541.1228564315 
 909 , 29532.07185371 
 910 , 29533.697088553 
 911 , 29542.4900251118 
 912 , 29552.0629045973 
 913 , 29558.2399447404 
 914 , 29559.1334987405 
 915 , 29555.6668113099 
 916 , 29556.7595809883 
 917 , 29570.6624479735 
 918 , 29584.7943769589 
 919 , 29575.2112482271 
 920 , 29540.6703908953 
 921 , 29515.3538391761 
 922 , 29526.9214274855 
 923 , 29558.5774718267 
 924 , 29581.8729200907 
 925 , 29589.4266510751 
 926 , 29591.4398545999 
 927 , 29594.3030390434 
 928 , 29594.3833902347 
 929 , 29587.3514910979 
 930 , 29573.9673768612 
 931 , 29557.2684876365 
 932 , 29542.1382040877 
 933 , 29535.6549869939 
 934 , 29539.9850980127 
 935 , 29540.1848169553 
 936 , 29520.2972713672 
 937 , 29493.3811103087 
 938 , 29490.2616133459 
 939 , 29517.9151832278 
 940 , 29542.9856872897 
 941 , 29536.2072662834 
 942 , 29507.2273447862 
 943 , 29477.1154320331 
 944 , 29458.1744987312 
 945 , 29455.1931842037 
 946 , 29468.6325004992 
 947 , 29489.5569001284 
 948 , 29509.0368428218 
 949 , 29527.3186183093 
 950 , 29548.3372881593 
 951 , 29570.1202784032 
 952 , 29583.9713538162 
 953 , 29583.764802601 
 954 , 29572.5117707801 
 955 , 29554.954279733 
 956 , 29535.4232879932 
 957 , 29517.9992029135 
 958 , 29505.7362166328 
 959 , 29500.1835984851 
 960 , 29502.2841583422 
 961 , 29510.9741988539 
 962 , 29524.2110586474 
 963 , 29533.737844781 
 964 , 29526.9258132561 
 965 , 29499.6328981496 
 966 , 29463.6844204641 
 967 , 29431.7708839352 
 968 , 29411.9314260487 
 969 , 29410.1771543728 
 970 , 29423.4147306137 
 971 , 29440.5074831284 
 972 , 29453.8512695256 
 973 , 29464.6130594411 
 974 , 29475.0268667216 
 975 , 29486.242995951 
 976 , 29498.782188791 
 977 , 29508.3785857744 
 978 , 29505.6935940646 
 979 , 29488.0582196143 
 980 , 29472.0344191081 
 981 , 29474.782755603 
 982 , 29491.3023419818 
 983 , 29506.1083253536 
 984 , 29515.0031576675 
 985 , 29527.8704856219 
 986 , 29551.8979825686 
 987 , 29582.5804436198 
 988 , 29613.5895654314 
 989 , 29644.090634879 
 990 , 29676.2706857629 
 991 , 29709.1413600068 
 992 , 29737.1924460864 
 993 , 29756.0731148375 
 994 , 29767.046939846 
 995 , 29773.7476472779 
 996 , 29791.6806152983 
 997 , 29843.5752352368 
 998 , 29937.4256709633 
 999 , 30058.0811382235 
 1000 , 30190.1308521675 
 1001 , 30325.4101963289 
 1002 , 30459.8550880408 
 1003 , 30617.3380836314 
 1004 , 30839.998245948 
 1005 , 31108.9665402193 
 1006 , 31302.4186246172 
 1007 , 31315.9384443651 
 1008 , 31166.6240058333 
 1009 , 30905.8948621713 
 1010 , 30591.4063604038 
 1011 , 30285.0928695668 
 1012 , 30030.3414917485 
 1013 , 29837.8019429583 
 1014 , 29711.2358901789 
 1015 , 29637.827538031 
 1016 , 29600.1516933231 
 1017 , 29583.5794424675 
 1018 , 29575.5904993053 
 1019 , 29567.2399879574 
 1020 , 29555.8824279722 
 1021 , 29540.8218952525 
 1022 , 29527.4365407611 
 1023 , 29522.3012662287 
 1024 , 29523.8304901595 
 1025 , 29524.44232686 
 1026 , 29519.2984931066 
 1027 , 29508.6555334873 
 1028 , 29495.0448929033 
 1029 , 29489.0275253794 
 1030 , 29502.5540672599 
 1031 , 29535.3612353161 
 1032 , 29578.4478175291 
 1033 , 29624.4654385305 
 1034 , 29669.1960539314 
 1035 , 29708.485329022 
 1036 , 29737.1387289476 
 1037 , 29750.1895739699 
 1038 , 29749.004868969 
 1039 , 29739.1589551348 
 1040 , 29721.0214840219 
 1041 , 29686.5756340763 
 1042 , 29634.5916742112 
 1043 , 29593.7871849298 
 1044 , 29596.1985319364 
 1045 , 29628.2581423076 
 1046 , 29648.525994764 
 1047 , 29638.986200094 
 1048 , 29616.0385931675 
 1049 , 29596.144681165 
