11-20-2017,19:41:02
Wavenumber(cm-1),Intensity
 250 , 15528.0894686939 
 251 , 15545.1192922134 
 252 , 15563.0094145966 
 253 , 15581.8260747801 
 254 , 15599.9145793591 
 255 , 15615.6283116217 
 256 , 15629.5877842064 
 257 , 15644.0997959721 
 258 , 15660.5771707045 
 259 , 15675.3851149529 
 260 , 15683.2083742282 
 261 , 15682.8535274371 
 262 , 15682.6180093104 
 263 , 15691.8355351612 
 264 , 15712.3458194026 
 265 , 15738.06883885 
 266 , 15763.0061454524 
 267 , 15784.9149432302 
 268 , 15803.3822146619 
 269 , 15819.0579988549 
 270 , 15836.0774927227 
 271 , 15859.2007636249 
 272 , 15888.2500259432 
 273 , 15915.8541658963 
 274 , 15934.8006876709 
 275 , 15946.7924069865 
 276 , 15959.5148273308 
 277 , 15979.1422089433 
 278 , 16004.275950251 
 279 , 16031.319595006 
 280 , 16058.0099408738 
 281 , 16084.6990348144 
 282 , 16111.9225360174 
 283 , 16137.9611930395 
 284 , 16159.094557529 
 285 , 16172.7027311091 
 286 , 16183.633454356 
 287 , 16199.6615890388 
 288 , 16224.7400123867 
 289 , 16252.9294247211 
 290 , 16276.8506022317 
 291 , 16293.1041406651 
 292 , 16302.8070229096 
 293 , 16307.7394024273 
 294 , 16313.2552947807 
 295 , 16326.5171516221 
 296 , 16350.4724815718 
 297 , 16374.0172882566 
 298 , 16383.4006284154 
 299 , 16377.443525955 
 300 , 16372.6740974517 
 301 , 16385.2223776522 
 302 , 16411.9003272446 
 303 , 16437.4270945844 
 304 , 16450.4281970709 
 305 , 16456.5034893209 
 306 , 16465.6052161367 
 307 , 16483.910071647 
 308 , 16511.179695458 
 309 , 16546.2409806235 
 310 , 16583.4700802684 
 311 , 16613.9209208667 
 312 , 16631.5101279849 
 313 , 16644.8772761576 
 314 , 16667.1985054964 
 315 , 16703.82275719 
 316 , 16744.506223857 
 317 , 16777.7054865613 
 318 , 16801.625739978 
 319 , 16822.863977928 
 320 , 16847.3032643583 
 321 , 16875.0623865351 
 322 , 16904.1760503543 
 323 , 16932.8237450962 
 324 , 16959.5195025332 
 325 , 16982.9149775041 
 326 , 17003.6260723965 
 327 , 17024.1574428756 
 328 , 17046.9112195195 
 329 , 17073.1129284528 
 330 , 17103.5061083824 
 331 , 17136.2629703708 
 332 , 17163.1361488289 
 333 , 17175.2960706375 
 334 , 17173.9067188222 
 335 , 17170.5362807585 
 336 , 17175.8747249388 
 337 , 17190.8604361473 
 338 , 17212.187244479 
 339 , 17236.7519064449 
 340 , 17262.0384276275 
 341 , 17285.6116612446 
 342 , 17304.6051952696 
 343 , 17315.6813462788 
 344 , 17316.6960856471 
 345 , 17314.6265061911 
 346 , 17320.5777512264 
 347 , 17339.7556389339 
 348 , 17361.1005968278 
 349 , 17371.195092494 
 350 , 17368.1603808181 
 351 , 17362.9486421373 
 352 , 17366.0452367591 
 353 , 17379.3411852699 
 354 , 17400.8004450763 
 355 , 17428.5786860923 
 356 , 17461.4117374558 
 357 , 17498.0730359344 
 358 , 17535.674377443 
 359 , 17569.5047423826 
 360 , 17595.8148556074 
 361 , 17618.5959807135 
 362 , 17645.2826289176 
 363 , 17680.9670668291 
 364 , 17724.52518244 
 365 , 17773.6262243945 
 366 , 17821.0595714486 
 367 , 17854.4944049582 
 368 , 17864.1387715726 
 369 , 17859.2896367436 
 370 , 17857.2394488553 
 371 , 17869.0191307955 
 372 , 17890.2218319481 
 373 , 17914.3219707158 
 374 , 17939.3283630541 
 375 , 17967.6621616308 
 376 , 18000.9941124496 
 377 , 18035.2178231247 
 378 , 18064.0370431265 
 379 , 18084.9711112742 
 380 , 18103.9921062603 
 381 , 18127.8203187082 
 382 , 18156.1398074627 
 383 , 18182.478278377 
 384 , 18202.0291105579 
 385 , 18220.0969437555 
 386 , 18245.3456703514 
 387 , 18282.067826028 
 388 , 18326.0970401404 
 389 , 18372.2888683255 
 390 , 18415.3340532588 
 391 , 18449.7976900419 
 392 , 18472.099925675 
 393 , 18487.1145618173 
 394 , 18502.0783455452 
 395 , 18521.4281964038 
 396 , 18545.0047731277 
 397 , 18571.9896193711 
 398 , 18598.8780813954 
 399 , 18620.4386782665 
 400 , 18634.1982976533 
 401 , 18648.0143881602 
 402 , 18671.9605565017 
 403 , 18708.5350487763 
 404 , 18749.9739908196 
 405 , 18788.4361974744 
 406 , 18821.8741392989 
 407 , 18851.2726526883 
 408 , 18878.1954889795 
 409 , 18905.8219721134 
 410 , 18937.5646439796 
 411 , 18975.2085506261 
 412 , 19018.7695867241 
 413 , 19067.121919425 
 414 , 19112.1103361883 
 415 , 19142.7331490226 
 416 , 19155.1212475005 
 417 , 19161.4656218405 
 418 , 19175.4013687035 
 419 , 19197.575864087 
 420 , 19217.6394090892 
 421 , 19227.8872943859 
 422 , 19235.3203548837 
 423 , 19251.3602687843 
 424 , 19280.5528191103 
 425 , 19315.8080454535 
 426 , 19349.3979930606 
 427 , 19379.1588660063 
 428 , 19406.4740566576 
 429 , 19431.7253639454 
 430 , 19451.5694432955 
 431 , 19462.0790801274 
 432 , 19467.6555006375 
 433 , 19483.0756055281 
 434 , 19520.636111535 
 435 , 19568.7586622865 
 436 , 19604.8968821099 
 437 , 19616.1026766952 
 438 , 19613.1502992214 
 439 , 19610.0825361849 
 440 , 19615.0998151315 
 441 , 19631.1786854809 
 442 , 19659.4329736033 
 443 , 19692.4617260263 
 444 , 19720.2549612546 
 445 , 19739.2766531674 
 446 , 19756.9465547756 
 447 , 19781.2377730891 
 448 , 19814.553887994 
 449 , 19855.8447115348 
 450 , 19901.4234971139 
 451 , 19939.0545304835 
 452 , 19955.2724633954 
 453 , 19952.6184847746 
 454 , 19952.0106335016 
 455 , 19971.6191519507 
 456 , 20004.5010262543 
 457 , 20033.4733304092 
 458 , 20049.5552273089 
 459 , 20061.2402844463 
 460 , 20078.743384558 
 461 , 20104.7986615781 
 462 , 20136.4600653954 
 463 , 20170.3636375286 
 464 , 20202.0197817726 
 465 , 20226.7473436064 
 466 , 20243.9430522611 
 467 , 20258.5325158264 
 468 , 20275.1729589558 
 469 , 20293.2148379854 
 470 , 20309.462671402 
 471 , 20322.1932929719 
 472 , 20333.3238819056 
 473 , 20345.4561118503 
 474 , 20363.6153871955 
 475 , 20394.8923540978 
 476 , 20443.1129492593 
 477 , 20496.9154214545 
 478 , 20540.7391699537 
 479 , 20565.712716796 
 480 , 20572.8099747592 
 481 , 20564.6443153381 
 482 , 20551.2238435301 
 483 , 20546.348080618 
 484 , 20558.7013002163 
 485 , 20583.7150035481 
 486 , 20614.8540832765 
 487 , 20648.1146131705 
 488 , 20681.716006888 
 489 , 20713.8616336742 
 490 , 20742.330384529 
 491 , 20764.8387879869 
 492 , 20782.242074233 
 493 , 20799.9992055634 
 494 , 20823.3482452503 
 495 , 20852.5478249886 
 496 , 20885.3472445288 
 497 , 20918.580977288 
 498 , 20946.8684311953 
 499 , 20964.908665666 
 500 , 20974.4224097123 
 501 , 20982.9740814701 
 502 , 20996.8070172702 
 503 , 21015.7644585242 
 504 , 21037.9343910967 
 505 , 21059.4119253494 
 506 , 21073.617096024 
 507 , 21075.2581589305 
 508 , 21070.0179477164 
 509 , 21068.4903420662 
 510 , 21074.9434135472 
 511 , 21079.8672978043 
 512 , 21073.3328678072 
 513 , 21064.3678251976 
 514 , 21075.730720304 
 515 , 21121.2548381273 
 516 , 21181.7680088992 
 517 , 21231.2850033309 
 518 , 21260.0379715954 
 519 , 21276.5842397127 
 520 , 21289.1463516617 
 521 , 21298.1339973237 
 522 , 21301.1629295008 
 523 , 21302.1283638331 
 524 , 21315.91555131 
 525 , 21356.0068257302 
 526 , 21410.6696983354 
 527 , 21453.6303304781 
 528 , 21469.9970836141 
 529 , 21476.463139049 
 530 , 21493.9931721662 
 531 , 21523.8782815857 
 532 , 21550.183704089 
 533 , 21560.712924839 
 534 , 21561.9377530117 
 535 , 21565.2143732512 
 536 , 21575.7636455161 
 537 , 21590.814028709 
 538 , 21607.8686690012 
 539 , 21629.9684271116 
 540 , 21662.4229360188 
 541 , 21705.1962168169 
 542 , 21747.9149820426 
 543 , 21780.086783807 
 544 , 21802.9415915178 
 545 , 21824.9918926 
 546 , 21851.2150383637 
 547 , 21876.0816489487 
 548 , 21892.7671143462 
 549 , 21905.6382992937 
 550 , 21929.106766451 
 551 , 21973.2467866295 
 552 , 22027.8184040216 
 553 , 22077.3180773655 
 554 , 22114.8360786291 
 555 , 22144.4127848577 
 556 , 22171.5828876584 
 557 , 22206.9471538066 
 558 , 22262.9455503373 
 559 , 22335.7060380413 
 560 , 22392.0301885764 
 561 , 22399.9446850701 
 562 , 22369.3671292862 
 563 , 22333.8708825602 
 564 , 22317.5888554251 
 565 , 22320.0144661514 
 566 , 22336.5303964722 
 567 , 22358.5369225418 
 568 , 22374.3239729266 
 569 , 22377.372484308 
 570 , 22380.1176355072 
 571 , 22398.6163156402 
 572 , 22432.7099515665 
 573 , 22465.0767689815 
 574 , 22481.7054599151 
 575 , 22489.5030341233 
 576 , 22501.7886681039 
 577 , 22522.9845206629 
 578 , 22544.9021554619 
 579 , 22559.9281474316 
 580 , 22571.2993914657 
 581 , 22586.8898825091 
 582 , 22609.5538114723 
 583 , 22632.6505594779 
 584 , 22649.6401246077 
 585 , 22665.4749555456 
 586 , 22691.6811749548 
 587 , 22729.2589354265 
 588 , 22752.7134070892 
 589 , 22735.2553437242 
 590 , 22689.8087384334 
 591 , 22658.9626637879 
 592 , 22671.1833167497 
 593 , 22705.929004775 
 594 , 22733.5216067322 
 595 , 22744.797460096 
 596 , 22750.1671809377 
 597 , 22758.4828708979 
 598 , 22768.4544246189 
 599 , 22776.1933375314 
 600 , 22782.7182351305 
 601 , 22794.9450731528 
 602 , 22818.5492729627 
 603 , 22850.2671985962 
 604 , 22883.7539438197 
 605 , 22914.8561307041 
 606 , 22942.7061221204 
 607 , 22966.8426000797 
 608 , 22987.7942764476 
 609 , 23006.5440460571 
 610 , 23025.9718446524 
 611 , 23052.4600031331 
 612 , 23091.8700761931 
 613 , 23141.7168924137 
 614 , 23194.9903956031 
 615 , 23245.3450092974 
 616 , 23288.0403341372 
 617 , 23319.3253798392 
 618 , 23344.595789097 
 619 , 23375.2416254866 
 620 , 23417.0144066347 
 621 , 23459.8825087514 
 622 , 23492.1496853961 
 623 , 23517.7534608142 
 624 , 23552.8348755332 
 625 , 23606.5578596499 
 626 , 23663.9464882272 
 627 , 23705.5137426161 
 628 , 23721.0532536077 
 629 , 23708.8493213685 
 630 , 23672.2349468296 
 631 , 23633.1660089949 
 632 , 23617.4367448077 
 633 , 23632.0150066319 
 634 , 23663.9589212158 
 635 , 23700.0644016822 
 636 , 23730.3235847392 
 637 , 23745.8972707052 
 638 , 23746.1639009415 
 639 , 23740.418907964 
 640 , 23737.1357113391 
 641 , 23737.2497515164 
 642 , 23739.3098422648 
 643 , 23746.861094576 
 644 , 23770.2463408506 
 645 , 23817.1036382107 
 646 , 23875.6548124478 
 647 , 23926.9498245655 
 648 , 23959.4076905164 
 649 , 23972.6251356828 
 650 , 23968.3988231849 
 651 , 23957.2183181005 
 652 , 23953.1094261476 
 653 , 23962.2143482895 
 654 , 23977.5292291799 
 655 , 23991.5462832061 
 656 , 24002.3910441791 
 657 , 24010.7896974043 
 658 , 24018.4388318234 
 659 , 24028.7645612363 
 660 , 24044.5519290174 
 661 , 24061.7233120477 
 662 , 24072.8362922464 
 663 , 24075.8851204089 
 664 , 24079.4473635676 
 665 , 24092.3755076529 
 666 , 24115.0810663785 
 667 , 24143.5150652138 
 668 , 24174.6049252608 
 669 , 24207.3631744151 
 670 , 24240.9886151136 
 671 , 24274.0166132125 
 672 , 24304.6134223652 
 673 , 24330.870042023 
 674 , 24350.7249097645 
 675 , 24362.8469000145 
 676 , 24373.4066638648 
 677 , 24392.8574217988 
 678 , 24424.6265299587 
 679 , 24456.5492445988 
 680 , 24475.9674548193 
 681 , 24486.526952636 
 682 , 24501.4356900829 
 683 , 24528.5431141652 
 684 , 24563.4379809756 
 685 , 24600.0622278388 
 686 , 24632.5343614919 
 687 , 24655.0906980535 
 688 , 24664.8051483328 
 689 , 24665.1039550785 
 690 , 24660.1804250843 
 691 , 24653.2353218983 
 692 , 24646.8866327107 
 693 , 24644.222452261 
 694 , 24649.3872099194 
 695 , 24666.0619236434 
 696 , 24691.8393255985 
 697 , 24720.804102883 
 698 , 24749.4954243026 
 699 , 24779.8307542742 
 700 , 24813.7534250553 
 701 , 24846.7098670911 
 702 , 24870.5283944932 
 703 , 24880.066056263 
 704 , 24876.5281454399 
 705 , 24862.2894455985 
 706 , 24843.2145415512 
 707 , 24827.0141550241 
 708 , 24818.9289647176 
 709 , 24819.3223474509 
 710 , 24827.8000136495 
 711 , 24842.3510462286 
 712 , 24860.141092839 
 713 , 24877.3900876087 
 714 , 24888.5949492741 
 715 , 24889.3664698195 
 716 , 24885.3865456168 
 717 , 24886.9407581583 
 718 , 24896.3745713948 
 719 , 24902.5405980513 
 720 , 24895.7864534676 
 721 , 24886.0735126412 
 722 , 24891.5410564114 
 723 , 24918.1115820773 
 724 , 24952.7878781285 
 725 , 24982.8650035205 
 726 , 25007.568065348 
 727 , 25030.6359292665 
 728 , 25052.2228067345 
 729 , 25067.4807788162 
 730 , 25073.1429400412 
 731 , 25076.6456805512 
 732 , 25088.860474223 
 733 , 25113.0888072949 
 734 , 25143.2508892674 
 735 , 25173.0615119469 
 736 , 25198.0336051342 
 737 , 25214.4331534477 
 738 , 25224.417809309 
 739 , 25236.562894099 
 740 , 25257.2189537665 
 741 , 25282.3455057722 
 742 , 25305.5088568515 
 743 , 25325.5833803612 
 744 , 25346.4643172112 
 745 , 25369.815320738 
 746 , 25388.9398053398 
 747 , 25395.9880913161 
 748 , 25393.5472790308 
 749 , 25392.6617774013 
 750 , 25401.1388646896 
 751 , 25416.7889006935 
 752 , 25435.5698676561 
 753 , 25452.5707324794 
 754 , 25462.3012018966 
 755 , 25463.8005725199 
 756 , 25466.8862065973 
 757 , 25481.4477088662 
 758 , 25502.6589939434 
 759 , 25517.3892573033 
 760 , 25521.5127311728 
 761 , 25528.6122532627 
 762 , 25551.76679836 
 763 , 25584.4494697548 
 764 , 25611.1458253719 
 765 , 25624.4468763969 
 766 , 25629.8497038525 
 767 , 25633.2477608206 
 768 , 25636.053355835 
 769 , 25638.0392962031 
 770 , 25639.9992822932 
 771 , 25644.0334768988 
 772 , 25651.882694451 
 773 , 25663.2169090551 
 774 , 25676.9184928334 
 775 , 25687.4713624389 
 776 , 25684.8776712894 
 777 , 25664.5033519382 
 778 , 25641.6021582468 
 779 , 25634.7414550458 
 780 , 25644.4878345307 
 781 , 25656.9534304489 
 782 , 25662.9881590969 
 783 , 25667.4145103028 
 784 , 25676.7703689253 
 785 , 25690.5671609284 
 786 , 25703.9474418735 
 787 , 25713.5636770787 
 788 , 25719.3093442145 
 789 , 25722.1592937486 
 790 , 25728.4652835145 
 791 , 25747.0746845883 
 792 , 25783.7985463716 
 793 , 25839.7075113267 
 794 , 25912.0344427501 
 795 , 25978.6507341318 
 796 , 26011.3664574914 
 797 , 26004.5193154206 
 798 , 25978.7652685229 
 799 , 25953.0090901415 
 800 , 25933.0501897227 
 801 , 25921.3835682135 
 802 , 25920.6343823041 
 803 , 25933.5388062184 
 804 , 25960.7159706645 
 805 , 25996.6970033973 
 806 , 26034.92300316 
 807 , 26068.7847448171 
 808 , 26091.6697900408 
 809 , 26101.1667569252 
 810 , 26103.4375706756 
 811 , 26105.5852355998 
 812 , 26113.9279426644 
 813 , 26134.2458731075 
 814 , 26163.147588373 
 815 , 26183.9037540734 
 816 , 26182.5466655686 
 817 , 26164.4184196918 
 818 , 26140.8757486374 
 819 , 26121.2150409279 
 820 , 26112.5995333648 
 821 , 26118.984294733 
 822 , 26133.7410846709 
 823 , 26148.1287823621 
 824 , 26155.2802483844 
 825 , 26149.7106160694 
 826 , 26130.9938636513 
 827 , 26110.199979305 
 828 , 26098.7859802917 
 829 , 26098.0610146001 
 830 , 26104.3369819694 
 831 , 26117.5632620439 
 832 , 26143.383153898 
 833 , 26184.1969206909 
 834 , 26222.6016430177 
 835 , 26235.3806086187 
 836 , 26217.7125913096 
 837 , 26184.1396407358 
 838 , 26148.7551175217 
 839 , 26121.0136175178 
 840 , 26108.5943034467 
 841 , 26108.6827037145 
 842 , 26111.0683607998 
 843 , 26109.6329614068 
 844 , 26107.475820908 
 845 , 26108.78464755 
 846 , 26116.8334787923 
 847 , 26134.3414581717 
 848 , 26157.7920010576 
 849 , 26174.8827564259 
 850 , 26176.8856948238 
 851 , 26174.7379180446 
 852 , 26184.259931632 
 853 , 26205.0694000954 
 854 , 26221.9250681445 
 855 , 26225.2856215789 
 856 , 26223.295102235 
 857 , 26225.8870954503 
 858 , 26229.4880747806 
 859 , 26222.7438342424 
 860 , 26207.0163513266 
 861 , 26206.1129946248 
 862 , 26239.6955132428 
 863 , 26290.0167760106 
 864 , 26326.6175096895 
 865 , 26341.3602377778 
 866 , 26350.6515852303 
 867 , 26367.7921813354 
 868 , 26391.2224192539 
 869 , 26416.2803140755 
 870 , 26439.0428735678 
 871 , 26456.1385237853 
 872 , 26470.5636947323 
 873 , 26498.1148771432 
 874 , 26553.581644926 
 875 , 26634.691980465 
 876 , 26732.0930964569 
 877 , 26834.3294940818 
 878 , 26927.4140466007 
 879 , 27001.339876754 
 880 , 27061.6333259246 
 881 , 27116.900381099 
 882 , 27167.8105137376 
 883 , 27209.2059700212 
 884 , 27236.1535997781 
 885 , 27244.4866113804 
 886 , 27229.8209223398 
 887 , 27185.551247046 
 888 , 27104.570563185 
 889 , 26995.7608454379 
 890 , 26887.9200156363 
 891 , 26803.956433593 
 892 , 26739.7192472131 
 893 , 26684.9003671933 
 894 , 26632.6958248531 
 895 , 26578.8805147123 
 896 , 26523.3725077555 
 897 , 26474.5883911813 
 898 , 26440.2889120572 
 899 , 26416.7260845814 
 900 , 26395.6312978082 
 901 , 26375.4053458008 
 902 , 26362.3254690818 
 903 , 26359.0362213325 
 904 , 26353.8976486608 
 905 , 26333.768519844 
 906 , 26305.2266158475 
 907 , 26287.9073467981 
 908 , 26290.70869824 
 909 , 26302.0176328503 
 910 , 26309.9625857567 
 911 , 26314.2688755921 
 912 , 26318.7990127293 
 913 , 26326.1008990413 
 914 , 26337.3586144081 
 915 , 26351.408726881 
 916 , 26360.3352805103 
 917 , 26356.3741464711 
 918 , 26345.3288219111 
 919 , 26340.5113744033 
 920 , 26346.9338374034 
 921 , 26356.5979236145 
 922 , 26362.708256092 
 923 , 26369.2590215731 
 924 , 26382.5515050874 
 925 , 26394.9255189024 
 926 , 26387.1110188684 
 927 , 26352.5245692728 
 928 , 26314.6339173968 
 929 , 26297.4795779896 
 930 , 26298.9774612005 
 931 , 26305.8475449757 
 932 , 26311.389183806 
 933 , 26316.8241176279 
 934 , 26323.1054232003 
 935 , 26328.6937465885 
 936 , 26331.4778820742 
 937 , 26328.8628182515 
 938 , 26318.0356343097 
 939 , 26302.3989276599 
 940 , 26295.7548379935 
 941 , 26308.4372922334 
 942 , 26328.8998432128 
 943 , 26339.7588992189 
 944 , 26338.8718519571 
 945 , 26337.101722218 
 946 , 26339.3476679137 
 947 , 26335.8294526401 
 948 , 26318.3601509266 
 949 , 26304.0817759562 
 950 , 26320.002224785 
 951 , 26367.5581138182 
 952 , 26419.1049909094 
 953 , 26452.3877988804 
 954 , 26466.8323346177 
 955 , 26466.0541544457 
 956 , 26453.4941313275 
 957 , 26432.5530733054 
 958 , 26409.6649911626 
 959 , 26395.7247803844 
 960 , 26397.3236424462 
 961 , 26401.8158164416 
 962 , 26392.8597488359 
 963 , 26371.1804182144 
 964 , 26349.6840822016 
 965 , 26336.1358310077 
 966 , 26328.2413119437 
 967 , 26323.3171130318 
 968 , 26322.4396205839 
 969 , 26327.8227814431 
 970 , 26339.6846159215 
 971 , 26356.4747874321 
 972 , 26376.3990936522 
 973 , 26397.2425671957 
 974 , 26416.2304915632 
 975 , 26427.248804392 
 976 , 26423.0669874494 
 977 , 26402.8636052682 
 978 , 26372.6313448035 
 979 , 26341.3776146646 
 980 , 26325.578233423 
 981 , 26340.1785271261 
 982 , 26377.1408866155 
 983 , 26417.4229405153 
 984 , 26449.0520880395 
 985 , 26468.9137600521 
 986 , 26477.2103062938 
 987 , 26483.1976084804 
 988 , 26496.5414043315 
 989 , 26512.9250438031 
 990 , 26520.4707603247 
 991 , 26521.4853912678 
 992 , 26538.3817272358 
 993 , 26584.7070690844 
 994 , 26635.1551817324 
 995 , 26658.9358128048 
 996 , 26665.7702003385 
 997 , 26690.5894944561 
 998 , 26752.0339732857 
 999 , 26842.737904936 
 1000 , 26957.0734056197 
 1001 , 27105.9807983874 
 1002 , 27302.5594410403 
 1003 , 27532.9963540894 
 1004 , 27765.0639387562 
 1005 , 27963.9719323372 
 1006 , 28091.2282677239 
 1007 , 28113.8500629209 
 1008 , 28025.0021198406 
 1009 , 27827.1002958818 
 1010 , 27549.2503122945 
 1011 , 27239.8272479671 
 1012 , 26949.7215262961 
 1013 , 26733.4927914804 
 1014 , 26627.2624803504 
 1015 , 26579.8188113742 
 1016 , 26519.4702980736 
 1017 , 26442.9323954142 
 1018 , 26397.2208126144 
 1019 , 26400.5938443968 
 1020 , 26417.8181441246 
 1021 , 26417.0422136012 
 1022 , 26408.1968361825 
 1023 , 26411.7425860124 
 1024 , 26424.3472754622 
 1025 , 26425.2817074728 
 1026 , 26409.4103113727 
 1027 , 26399.8645962524 
 1028 , 26417.1614375309 
 1029 , 26456.6455261708 
 1030 , 26506.6474463084 
 1031 , 26557.9511035861 
 1032 , 26603.1208882227 
 1033 , 26636.3300764574 
 1034 , 26654.4177413631 
 1035 , 26656.9199207711 
 1036 , 26653.9375821291 
 1037 , 26657.3322909569 
 1038 , 26665.2893608216 
 1039 , 26666.8253384682 
 1040 , 26656.8309013702 
 1041 , 26639.7947325908 
 1042 , 26619.7824270652 
 1043 , 26595.7893684784 
 1044 , 26566.4969206967 
 1045 , 26541.0486270095 
 1046 , 26534.7893621863 
 1047 , 26548.0706156257 
 1048 , 26559.4681547065 
 1049 , 26553.522268916 
